"sep=	"
id95AE_Timestamp_Unix_CAL	id95AE_GSR_Range_CAL	id95AE_GSR_Skin_Conductance_CAL	id95AE_GSR_Skin_Resistance_CAL	id95AE_PPG_A13_CAL	
ms	no_units	uS	kOhms	mV	
1.7521210706472473E12	2.0	2.0080586080586085	497.99343305363004	0.0	
1.7521210706667786E12	2.0	2.0080586080586085	497.99343305363004	0.0	
1.7521210706863098E12	0.0	0.3462540775973599	2888.052631578958	0.0	
1.752121070705841E12	0.0	0.3462540775973599	2888.052631578958	0.0	
1.7521210707253723E12	0.0	0.3462540775973599	2888.052631578958	0.0	
1.7521210707449036E12	0.0	0.3462540775973599	2888.052631578958	0.0	
1.7521210707644348E12	0.0	0.3462540775973599	2888.052631578958	0.0	
1.752121070783966E12	1.0	0.35991882681778176	2778.404255319147	0.0	
1.7521210708034973E12	1.0	0.35991882681778176	2778.404255319147	0.0	
1.7521210708230286E12	1.0	0.35991882681778176	2778.404255319147	0.0	
1.7521210708425598E12	1.0	0.35991882681778176	2778.404255319147	0.0	
1.752121070862091E12	1.0	0.35991882681778176	2778.404255319147	0.0	
1.7521210708816223E12	2.0	0.3626373626373627	2757.575757575757	0.0	
1.7521210709011536E12	2.0	0.3626373626373627	2757.575757575757	0.0	
1.7521210709206848E12	2.0	0.3626373626373627	2757.575757575757	0.0	
1.752121070940216E12	2.0	0.3626373626373627	2757.575757575757	0.0	
1.7521210709597473E12	2.0	0.3626373626373627	2757.575757575757	0.0	
1.7521210709792786E12	3.0	0.36385836385836395	2748.322147651006	0.0	
1.7521210709988098E12	3.0	0.36385836385836395	2748.322147651006	0.0	
1.752121071018341E12	3.0	0.36385836385836395	2748.322147651006	0.0	
1.7521210710378723E12	3.0	0.36430236430236435	2744.972577696526	0.0	
1.7521210710574036E12	3.0	0.36430236430236435	2744.972577696526	0.0	
1.7521210710769348E12	3.0	0.36385836385836395	2748.322147651006	0.0	
1.752121071096466E12	3.0	0.36385836385836395	2748.322147651006	0.0	
1.7521210711159973E12	3.0	0.36430236430236435	2744.972577696526	0.0	
1.7521210711355286E12	3.0	0.36385836385836395	2748.322147651006	0.0	
1.7521210711550598E12	3.0	0.36430236430236435	2744.972577696526	0.0	
1.752121071174591E12	3.0	0.36430236430236435	2744.972577696526	0.0	
1.7521210711941223E12	3.0	0.36430236430236435	2744.972577696526	0.0	
1.7521210712136536E12	3.0	0.36430236430236435	2744.972577696526	0.0	
1.7521210712331848E12	3.0	0.36385836385836395	2748.322147651006	0.0	
1.752121071252716E12	3.0	0.36385836385836395	2748.322147651006	0.0	
1.7521210712722473E12	3.0	0.36430236430236435	2744.972577696526	0.0	
1.7521210712917786E12	3.0	0.36430236430236435	2744.972577696526	0.0	
1.7521210713113098E12	3.0	0.36385836385836395	2748.322147651006	0.0	
1.752121071330841E12	3.0	0.36430236430236435	2744.972577696526	0.0	
1.7521210713503723E12	3.0	0.36385836385836395	2748.322147651006	0.0	
1.7521210713699036E12	3.0	0.36430236430236435	2744.972577696526	0.0	
1.7521210713894348E12	3.0	0.36430236430236435	2744.972577696526	0.0	
1.752121071408966E12	3.0	0.36385836385836395	2748.322147651006	0.0	
1.7521210714284973E12	3.0	0.36385836385836395	2748.322147651006	0.0	
1.7521210714480286E12	3.0	0.36385836385836395	2748.322147651006	0.0	
1.7521210714675598E12	3.0	0.36385836385836395	2748.322147651006	0.0	
1.752121071487091E12	3.0	0.36430236430236435	2744.972577696526	0.0	
1.7521210715066223E12	3.0	0.36385836385836395	2748.322147651006	0.0	
1.7521210715261536E12	3.0	0.36385836385836395	2748.322147651006	0.0	
1.7521210715456848E12	3.0	0.36385836385836395	2748.322147651006	0.0	
1.752121071565216E12	3.0	0.36385836385836395	2748.322147651006	0.0	
1.7521210715847473E12	3.0	0.36430236430236435	2744.972577696526	0.0	
1.7521210716042786E12	3.0	0.36430236430236435	2744.972577696526	0.0	
1.7521210716238098E12	3.0	0.36385836385836395	2748.322147651006	0.0	
1.752121071643341E12	3.0	0.36385836385836395	2748.322147651006	0.0	
1.7521210716628723E12	3.0	0.36385836385836395	2748.322147651006	0.0	
1.7521210716824036E12	3.0	0.36385836385836395	2748.322147651006	0.0	
1.7521210717019348E12	3.0	0.36385836385836395	2748.322147651006	0.0	
1.752121071721466E12	3.0	0.36385836385836395	2748.322147651006	0.0	
1.7521210717409973E12	3.0	0.36385836385836395	2748.322147651006	0.0	
1.7521210717605286E12	3.0	0.36385836385836395	2748.322147651006	0.0	
1.7521210717800598E12	3.0	0.36385836385836395	2748.322147651006	0.0	
1.752121071799591E12	3.0	0.36385836385836395	2748.322147651006	0.0	
1.7521210718191223E12	3.0	0.36385836385836395	2748.322147651006	0.0	
1.7521210718386536E12	3.0	0.36385836385836395	2748.322147651006	0.0	
1.7521210718581848E12	3.0	0.36385836385836395	2748.322147651006	0.0	
1.752121071877716E12	3.0	0.36385836385836395	2748.322147651006	0.0	
1.7521210718972473E12	3.0	0.36385836385836395	2748.322147651006	0.0	
1.7521210719167786E12	3.0	0.36385836385836395	2748.322147651006	0.0	
1.7521210719363098E12	3.0	0.36385836385836395	2748.322147651006	0.0	
1.752121071955841E12	3.0	0.36385836385836395	2748.322147651006	0.0	
1.7521210719753723E12	3.0	0.36385836385836395	2748.322147651006	0.0	
1.7521210719949036E12	3.0	0.36385836385836395	2748.322147651006	0.0	
1.7521210720144348E12	3.0	0.36385836385836395	2748.322147651006	0.0	
1.752121072033966E12	3.0	0.36385836385836395	2748.322147651006	0.0	
1.7521210720534973E12	3.0	0.36385836385836395	2748.322147651006	0.0	
1.7521210720730286E12	3.0	0.3634143634143635	2751.6799022602318	0.0	
1.7521210720925598E12	3.0	0.36385836385836395	2748.322147651006	0.0	
1.752121072112091E12	3.0	0.36385836385836395	2748.322147651006	0.0	
1.7521210721316223E12	3.0	0.36385836385836395	2748.322147651006	0.0	
1.7521210721511536E12	3.0	0.36385836385836395	2748.322147651006	0.0	
1.7521210721706848E12	3.0	0.36385836385836395	2748.322147651006	0.0	
1.752121072190216E12	3.0	0.36385836385836395	2748.322147651006	0.0	
1.7521210722097473E12	3.0	0.36385836385836395	2748.322147651006	0.0	
1.7521210722292786E12	3.0	0.36385836385836395	2748.322147651006	0.0	
1.7521210722488098E12	3.0	0.36385836385836395	2748.322147651006	0.0	
1.752121072268341E12	3.0	0.36385836385836395	2748.322147651006	0.0	
1.7521210722878723E12	3.0	0.3634143634143635	2751.6799022602318	0.0	
1.7521210723074036E12	3.0	0.36385836385836395	2748.322147651006	0.0	
1.7521210723269348E12	3.0	0.3634143634143635	2751.6799022602318	0.0	
1.752121072346466E12	3.0	0.3634143634143635	2751.6799022602318	0.0	
1.7521210723659973E12	3.0	0.3634143634143635	2751.6799022602318	0.0	
1.7521210723855286E12	3.0	0.36385836385836395	2748.322147651006	0.0	
1.7521210724050598E12	3.0	0.3634143634143635	2751.6799022602318	0.0	
1.752121072424591E12	3.0	0.3634143634143635	2751.6799022602318	0.0	
1.7521210724441223E12	3.0	0.3634143634143635	2751.6799022602318	0.0	
1.7521210724636536E12	3.0	0.3634143634143635	2751.6799022602318	0.0	
1.7521210724831848E12	3.0	0.3634143634143635	2751.6799022602318	0.0	
1.752121072502716E12	3.0	0.3634143634143635	2751.6799022602318	0.0	
1.7521210725222473E12	3.0	0.3634143634143635	2751.6799022602318	0.0	
1.7521210725417786E12	3.0	0.3634143634143635	2751.6799022602318	0.0	
1.7521210725613098E12	3.0	0.3634143634143635	2751.6799022602318	0.0	
1.752121072580841E12	3.0	0.3634143634143635	2751.6799022602318	0.0	
1.7521210726003723E12	3.0	0.3634143634143635	2751.6799022602318	0.0	
1.7521210726199036E12	3.0	0.3634143634143635	2751.6799022602318	0.0	
1.7521210726394348E12	3.0	0.3634143634143635	2751.6799022602318	0.0	
1.752121072658966E12	3.0	0.3634143634143635	2751.6799022602318	0.0	
1.7521210726784973E12	3.0	0.3634143634143635	2751.6799022602318	0.0	
1.7521210726980286E12	3.0	0.3634143634143635	2751.6799022602318	0.0	
1.7521210727175598E12	3.0	0.3634143634143635	2751.6799022602318	0.0	
1.752121072737091E12	3.0	0.3634143634143635	2751.6799022602318	0.0	
1.7521210727566223E12	3.0	0.3634143634143635	2751.6799022602318	0.0	
1.7521210727761536E12	3.0	0.3634143634143635	2751.6799022602318	0.0	
1.7521210727956848E12	3.0	0.3634143634143635	2751.6799022602318	0.0	
1.752121072815216E12	3.0	0.3634143634143635	2751.6799022602318	0.0	
1.7521210728347473E12	3.0	0.3634143634143635	2751.6799022602318	0.0	
1.7521210728542786E12	3.0	0.362970362970363	2755.045871559633	0.0	
1.7521210728738098E12	3.0	0.3634143634143635	2751.6799022602318	0.0	
1.752121072893341E12	3.0	0.3634143634143635	2751.6799022602318	0.0	
1.7521210729128723E12	3.0	0.362970362970363	2755.045871559633	0.0	
1.7521210729324036E12	3.0	0.3634143634143635	2751.6799022602318	0.0	
1.7521210729519348E12	3.0	0.3634143634143635	2751.6799022602318	0.0	
1.752121072971466E12	3.0	0.3634143634143635	2751.6799022602318	0.0	
1.7521210729909973E12	3.0	0.362970362970363	2755.045871559633	0.0	
1.7521210730105286E12	3.0	0.362970362970363	2755.045871559633	0.0	
1.7521210730300598E12	3.0	0.362970362970363	2755.045871559633	0.0	
1.752121073049591E12	3.0	0.3634143634143635	2751.6799022602318	0.0	
1.7521210730691223E12	3.0	0.362970362970363	2755.045871559633	0.0	
1.7521210730886536E12	3.0	0.3634143634143635	2751.6799022602318	0.0	
1.7521210731081848E12	3.0	0.3634143634143635	2751.6799022602318	0.0	
1.752121073127716E12	3.0	0.362970362970363	2755.045871559633	0.0	
1.7521210731472473E12	3.0	0.362970362970363	2755.045871559633	0.0	
1.7521210731667786E12	3.0	0.362970362970363	2755.045871559633	0.0	
1.7521210731863098E12	3.0	0.362970362970363	2755.045871559633	0.0	
1.752121073205841E12	3.0	0.362970362970363	2755.045871559633	0.0	
1.7521210732253723E12	3.0	0.362970362970363	2755.045871559633	0.0	
1.7521210732449036E12	3.0	0.362970362970363	2755.045871559633	0.0	
1.7521210732644348E12	3.0	0.362970362970363	2755.045871559633	0.0	
1.752121073283966E12	3.0	0.362970362970363	2755.045871559633	0.0	
1.7521210733034973E12	3.0	0.362970362970363	2755.045871559633	0.0	
1.7521210733230286E12	3.0	0.362970362970363	2755.045871559633	0.0	
1.7521210733425598E12	3.0	0.362970362970363	2755.045871559633	0.0	
1.752121073362091E12	3.0	0.362970362970363	2755.045871559633	0.0	
1.7521210733816223E12	3.0	0.362970362970363	2755.045871559633	0.0	
1.7521210734011536E12	3.0	0.362970362970363	2755.045871559633	0.0	
1.7521210734206848E12	3.0	0.362970362970363	2755.045871559633	0.0	
1.752121073440216E12	3.0	0.3634143634143635	2751.6799022602318	0.0	
1.7521210734597473E12	3.0	0.362970362970363	2755.045871559633	0.0	
1.7521210734792786E12	3.0	0.362970362970363	2755.045871559633	0.0	
1.7521210734988098E12	3.0	0.362970362970363	2755.045871559633	0.0	
1.752121073518341E12	3.0	0.3634143634143635	2751.6799022602318	0.0	
1.7521210735378723E12	3.0	0.3634143634143635	2751.6799022602318	0.0	
1.7521210735574036E12	3.0	0.36385836385836395	2748.322147651006	0.0	
1.7521210735769348E12	3.0	0.3634143634143635	2751.6799022602318	0.0	
1.752121073596466E12	3.0	0.362970362970363	2755.045871559633	0.0	
1.7521210736159973E12	3.0	0.362970362970363	2755.045871559633	0.0	
1.7521210736355286E12	3.0	0.3634143634143635	2751.6799022602318	243.2234432234432	
1.7521210736550598E12	3.0	0.362970362970363	2755.045871559633	581.6849816849816	
1.752121073674591E12	3.0	0.362970362970363	2755.045871559633	851.2820512820513	
1.7521210736941223E12	3.0	0.362970362970363	2755.045871559633	1027.106227106227	
1.7521210737136536E12	3.0	0.362970362970363	2755.045871559633	1111.3553113553112	
1.7521210737331848E12	3.0	0.362970362970363	2755.045871559633	1146.5201465201465	
1.752121073752716E12	3.0	0.362970362970363	2755.045871559633	1158.2417582417581	
1.7521210737722473E12	3.0	0.362970362970363	2755.045871559633	1145.7875457875457	
1.7521210737917786E12	3.0	0.362970362970363	2755.045871559633	1135.5311355311355	
1.7521210738113098E12	3.0	0.3625263625263626	2758.4200857317815	1131.8681318681317	
1.752121073830841E12	3.0	0.3625263625263626	2758.4200857317815	1126.7399267399267	
1.7521210738503723E12	3.0	0.362970362970363	2755.045871559633	1120.8791208791208	
1.7521210738699036E12	3.0	0.3625263625263626	2758.4200857317815	1113.5531135531135	
1.7521210738894348E12	3.0	0.3625263625263626	2758.4200857317815	1112.8205128205127	
1.752121073908966E12	3.0	0.3625263625263626	2758.4200857317815	1119.4139194139193	
1.7521210739284973E12	3.0	0.3625263625263626	2758.4200857317815	1119.4139194139193	
1.7521210739480286E12	3.0	0.3625263625263626	2758.4200857317815	1119.4139194139193	
1.7521210739675598E12	3.0	0.362970362970363	2755.045871559633	1117.9487179487178	
1.752121073987091E12	3.0	0.362970362970363	2755.045871559633	1112.8205128205127	
1.7521210740066223E12	3.0	0.3634143634143635	2751.6799022602318	1105.4945054945053	
1.7521210740261536E12	3.0	0.3634143634143635	2751.6799022602318	1100.3663003663003	
1.7521210740456848E12	3.0	0.362970362970363	2755.045871559633	1107.6923076923076	
1.752121074065216E12	3.0	0.362970362970363	2755.045871559633	1128.2051282051282	
1.7521210740847473E12	3.0	0.362970362970363	2755.045871559633	1188.278388278388	
1.7521210741042786E12	3.0	0.3625263625263626	2758.4200857317815	1293.7728937728937	
1.7521210741238098E12	3.0	0.3625263625263626	2758.4200857317815	1419.7802197802198	
1.752121074143341E12	3.0	0.362970362970363	2755.045871559633	1530.4029304029302	
1.7521210741628723E12	3.0	0.362970362970363	2755.045871559633	1624.9084249084249	
1.7521210741824036E12	3.0	0.362970362970363	2755.045871559633	1698.9010989010987	
1.7521210742019348E12	3.0	0.362970362970363	2755.045871559633	1750.9157509157508	
1.752121074221466E12	3.0	0.362970362970363	2755.045871559633	1767.032967032967	
1.7521210742409973E12	3.0	0.362970362970363	2755.045871559633	1750.9157509157508	
1.7521210742605286E12	3.0	0.362970362970363	2755.045871559633	1709.1575091575091	
1.7521210742800598E12	3.0	0.362970362970363	2755.045871559633	1665.201465201465	
1.752121074299591E12	3.0	0.3625263625263626	2758.4200857317815	1610.989010989011	
1.7521210743191223E12	3.0	0.362970362970363	2755.045871559633	1555.311355311355	
1.7521210743386536E12	3.0	0.362970362970363	2755.045871559633	1494.5054945054944	
1.7521210743581848E12	3.0	0.3625263625263626	2758.4200857317815	1436.6300366300366	
1.752121074377716E12	3.0	0.362970362970363	2755.045871559633	1393.4065934065934	
1.7521210743972473E12	3.0	0.362970362970363	2755.045871559633	1370.6959706959706	
1.7521210744167786E12	3.0	0.3625263625263626	2758.4200857317815	1358.2417582417581	
1.7521210744363098E12	3.0	0.3625263625263626	2758.4200857317815	1350.9157509157508	
1.752121074455841E12	3.0	0.362970362970363	2755.045871559633	1347.2527472527472	
1.7521210744753723E12	3.0	0.3625263625263626	2758.4200857317815	1330.4029304029302	
1.7521210744949036E12	3.0	0.3625263625263626	2758.4200857317815	1311.3553113553112	
1.7521210745144348E12	3.0	0.362970362970363	2755.045871559633	1298.168498168498	
1.752121074533966E12	3.0	0.3625263625263626	2758.4200857317815	1274.7252747252746	
1.7521210745534973E12	3.0	0.3625263625263626	2758.4200857317815	1258.6080586080586	
1.7521210745730286E12	3.0	0.3625263625263626	2758.4200857317815	1247.6190476190475	
1.7521210745925598E12	3.0	0.3625263625263626	2758.4200857317815	1243.2234432234432	
1.752121074612091E12	3.0	0.3625263625263626	2758.4200857317815	1238.095238095238	
1.7521210746316223E12	3.0	0.3625263625263626	2758.4200857317815	1235.8974358974358	
1.7521210746511536E12	3.0	0.3625263625263626	2758.4200857317815	1229.3040293040292	
1.7521210746706848E12	3.0	0.3625263625263626	2758.4200857317815	1217.5824175824175	
1.752121074690216E12	3.0	0.3625263625263626	2758.4200857317815	1208.7912087912086	
1.7521210747097473E12	3.0	0.3625263625263626	2758.4200857317815	1207.3260073260074	
1.7521210747292786E12	3.0	0.3625263625263626	2758.4200857317815	1205.8608058608058	
1.7521210747488098E12	3.0	0.3625263625263626	2758.4200857317815	1210.2564102564102	
1.752121074768341E12	3.0	0.3625263625263626	2758.4200857317815	1210.2564102564102	
1.7521210747878723E12	3.0	0.3625263625263626	2758.4200857317815	1210.2564102564102	
1.7521210748074036E12	3.0	0.3625263625263626	2758.4200857317815	1202.9304029304028	
1.7521210748269348E12	3.0	0.3625263625263626	2758.4200857317815	1201.4652014652013	
1.752121074846466E12	3.0	0.3625263625263626	2758.4200857317815	1208.7912087912086	
1.7521210748659973E12	3.0	0.3625263625263626	2758.4200857317815	1208.058608058608	
1.7521210748855286E12	3.0	0.3625263625263626	2758.4200857317815	1198.5347985347985	
1.7521210749050598E12	3.0	0.3625263625263626	2758.4200857317815	1177.2893772893772	
1.752121074924591E12	3.0	0.3625263625263626	2758.4200857317815	1165.5677655677655	
1.7521210749441223E12	3.0	0.3625263625263626	2758.4200857317815	1170.6959706959706	
1.7521210749636536E12	3.0	0.3625263625263626	2758.4200857317815	1183.8827838827838	
1.7521210749831848E12	3.0	0.3625263625263626	2758.4200857317815	1220.5128205128203	
1.752121075002716E12	3.0	0.3625263625263626	2758.4200857317815	1301.8315018315018	
1.7521210750222473E12	3.0	0.3625263625263626	2758.4200857317815	1405.8608058608058	
1.7521210750417786E12	3.0	0.3625263625263626	2758.4200857317815	1516.4835164835163	
1.7521210750613098E12	3.0	0.3625263625263626	2758.4200857317815	1612.4542124542124	
1.752121075080841E12	3.0	0.3625263625263626	2758.4200857317815	1687.179487179487	
1.7521210751003723E12	3.0	0.3625263625263626	2758.4200857317815	1725.2747252747251	
1.7521210751199036E12	3.0	0.3625263625263626	2758.4200857317815	1731.135531135531	
1.7521210751394348E12	3.0	0.3625263625263626	2758.4200857317815	1714.2857142857142	
1.752121075158966E12	3.0	0.3625263625263626	2758.4200857317815	1698.168498168498	
1.7521210751784973E12	3.0	0.3625263625263626	2758.4200857317815	1675.4578754578754	
1.7521210751980286E12	3.0	0.3625263625263626	2758.4200857317815	1643.2234432234432	
1.7521210752175598E12	3.0	0.3625263625263626	2758.4200857317815	1593.4065934065934	
1.752121075237091E12	3.0	0.3625263625263626	2758.4200857317815	1521.6117216117216	
1.7521210752566223E12	3.0	0.3625263625263626	2758.4200857317815	1458.6080586080584	
1.7521210752761536E12	3.0	0.3625263625263626	2758.4200857317815	1419.047619047619	
1.7521210752956848E12	3.0	0.3625263625263626	2758.4200857317815	1386.080586080586	
1.752121075315216E12	3.0	0.3625263625263626	2758.4200857317815	1377.2893772893772	
1.7521210753347473E12	3.0	0.3625263625263626	2758.4200857317815	1380.952380952381	
1.7521210753542786E12	3.0	0.3625263625263626	2758.4200857317815	1381.6849816849815	
1.7521210753738098E12	3.0	0.3625263625263626	2758.4200857317815	1378.7545787545787	
1.752121075393341E12	3.0	0.3625263625263626	2758.4200857317815	1363.3699633699632	
1.7521210754128723E12	3.0	0.3625263625263626	2758.4200857317815	1338.4615384615383	
1.7521210754324036E12	3.0	0.3625263625263626	2758.4200857317815	1312.8205128205127	
1.7521210754519348E12	3.0	0.3625263625263626	2758.4200857317815	1290.10989010989	
1.752121075471466E12	3.0	0.3625263625263626	2758.4200857317815	1273.9926739926739	
1.7521210754909973E12	3.0	0.36208236208236216	2761.8025751072955	1264.4688644688645	
1.7521210755105286E12	3.0	0.3625263625263626	2758.4200857317815	1237.3626373626373	
1.7521210755300598E12	3.0	0.3625263625263626	2758.4200857317815	1219.047619047619	
1.752121075549591E12	3.0	0.3625263625263626	2758.4200857317815	1213.9194139194137	
1.7521210755691223E12	3.0	0.3625263625263626	2758.4200857317815	1219.047619047619	
1.7521210755886536E12	3.0	0.3625263625263626	2758.4200857317815	1222.7106227106226	
1.7521210756081848E12	3.0	0.3625263625263626	2758.4200857317815	1222.7106227106226	
1.752121075627716E12	3.0	0.3625263625263626	2758.4200857317815	1214.6520146520145	
1.7521210756472473E12	3.0	0.3625263625263626	2758.4200857317815	1210.2564102564102	
1.7521210756667786E12	3.0	0.3625263625263626	2758.4200857317815	1216.117216117216	
1.7521210756863098E12	3.0	0.3625263625263626	2758.4200857317815	1221.9780219780218	
1.752121075705841E12	3.0	0.3625263625263626	2758.4200857317815	1221.245421245421	
1.7521210757253723E12	3.0	0.3625263625263626	2758.4200857317815	1224.1758241758241	
1.7521210757449036E12	3.0	0.3625263625263626	2758.4200857317815	1223.4432234432234	
1.7521210757644348E12	3.0	0.3625263625263626	2758.4200857317815	1219.7802197802198	
1.752121075783966E12	3.0	0.3625263625263626	2758.4200857317815	1213.9194139194137	
1.7521210758034973E12	3.0	0.3625263625263626	2758.4200857317815	1208.058608058608	
1.7521210758230286E12	3.0	0.3625263625263626	2758.4200857317815	1200.7326007326008	
1.7521210758425598E12	3.0	0.3625263625263626	2758.4200857317815	1195.6043956043954	
1.752121075862091E12	3.0	0.3625263625263626	2758.4200857317815	1192.6739926739926	
1.7521210758816223E12	3.0	0.3625263625263626	2758.4200857317815	1215.3846153846152	
1.7521210759011536E12	3.0	0.3625263625263626	2758.4200857317815	1275.4578754578754	
1.7521210759206848E12	3.0	0.3625263625263626	2758.4200857317815	1373.6263736263736	
1.752121075940216E12	3.0	0.3625263625263626	2758.4200857317815	1491.5750915750914	
1.7521210759597473E12	3.0	0.3625263625263626	2758.4200857317815	1607.3260073260071	
1.7521210759792786E12	3.0	0.3625263625263626	2758.4200857317815	1685.7142857142856	
1.7521210759988098E12	3.0	0.3625263625263626	2758.4200857317815	1720.14652014652	
1.752121076018341E12	3.0	0.3625263625263626	2758.4200857317815	1722.3443223443223	
1.7521210760378723E12	3.0	0.3625263625263626	2758.4200857317815	1701.8315018315018	
1.7521210760574036E12	3.0	0.3625263625263626	2758.4200857317815	1677.6556776556774	
1.7521210760769348E12	3.0	0.3625263625263626	2758.4200857317815	1648.3516483516482	
1.752121076096466E12	3.0	0.3625263625263626	2758.4200857317815	1610.989010989011	
1.7521210761159973E12	3.0	0.3625263625263626	2758.4200857317815	1559.7069597069597	
1.7521210761355286E12	3.0	0.36208236208236216	2761.8025751072955	1500.3663003663003	
1.7521210761550598E12	3.0	0.3625263625263626	2758.4200857317815	1449.084249084249	
1.752121076174591E12	3.0	0.3625263625263626	2758.4200857317815	1416.117216117216	
1.7521210761941223E12	3.0	0.36208236208236216	2761.8025751072955	1400.0	
1.7521210762136536E12	3.0	0.3625263625263626	2758.4200857317815	1398.5347985347985	
1.7521210762331848E12	3.0	0.3625263625263626	2758.4200857317815	1400.7326007326005	
1.752121076252716E12	3.0	0.3625263625263626	2758.4200857317815	1392.6739926739926	
1.7521210762722473E12	3.0	0.3625263625263626	2758.4200857317815	1382.4175824175823	
1.7521210762917786E12	3.0	0.3625263625263626	2758.4200857317815	1364.102564102564	
1.7521210763113098E12	3.0	0.3625263625263626	2758.4200857317815	1339.194139194139	
1.752121076330841E12	3.0	0.36208236208236216	2761.8025751072955	1322.3443223443223	
1.7521210763503723E12	3.0	0.36208236208236216	2761.8025751072955	1310.6227106227104	
1.7521210763699036E12	3.0	0.3625263625263626	2758.4200857317815	1299.6336996336995	
1.7521210763894348E12	3.0	0.3625263625263626	2758.4200857317815	1289.3772893772893	
1.752121076408966E12	3.0	0.3625263625263626	2758.4200857317815	1279.120879120879	
1.7521210764284973E12	3.0	0.3625263625263626	2758.4200857317815	1263.7362637362637	
1.7521210764480286E12	3.0	0.3625263625263626	2758.4200857317815	1248.3516483516482	
1.7521210764675598E12	3.0	0.3625263625263626	2758.4200857317815	1241.7582417582416	
1.752121076487091E12	3.0	0.3625263625263626	2758.4200857317815	1249.8168498168498	
1.7521210765066223E12	3.0	0.3625263625263626	2758.4200857317815	1252.7472527472526	
1.7521210765261536E12	3.0	0.3625263625263626	2758.4200857317815	1253.4798534798533	
1.7521210765456848E12	3.0	0.3625263625263626	2758.4200857317815	1252.014652014652	
1.752121076565216E12	3.0	0.3625263625263626	2758.4200857317815	1249.084249084249	
1.7521210765847473E12	3.0	0.3625263625263626	2758.4200857317815	1234.4322344322343	
1.7521210766042786E12	3.0	0.36208236208236216	2761.8025751072955	1229.3040293040292	
1.7521210766238098E12	3.0	0.3625263625263626	2758.4200857317815	1219.047619047619	
1.752121076643341E12	3.0	0.3625263625263626	2758.4200857317815	1207.3260073260074	
1.7521210766628723E12	3.0	0.3625263625263626	2758.4200857317815	1209.5238095238094	
1.7521210766824036E12	3.0	0.3625263625263626	2758.4200857317815	1210.2564102564102	
1.7521210767019348E12	3.0	0.3625263625263626	2758.4200857317815	1213.1868131868132	
1.752121076721466E12	3.0	0.3625263625263626	2758.4200857317815	1209.5238095238094	
1.7521210767409973E12	3.0	0.3625263625263626	2758.4200857317815	1213.9194139194137	
1.7521210767605286E12	3.0	0.3625263625263626	2758.4200857317815	1237.3626373626373	
1.7521210767800598E12	3.0	0.3625263625263626	2758.4200857317815	1295.2380952380952	
1.752121076799591E12	3.0	0.3625263625263626	2758.4200857317815	1391.2087912087911	
1.7521210768191223E12	3.0	0.3625263625263626	2758.4200857317815	1506.227106227106	
1.7521210768386536E12	3.0	0.3625263625263626	2758.4200857317815	1615.3846153846152	
1.7521210768581848E12	3.0	0.3625263625263626	2758.4200857317815	1701.098901098901	
1.752121076877716E12	3.0	0.3625263625263626	2758.4200857317815	1749.4505494505493	
1.7521210768972473E12	3.0	0.362970362970363	2755.045871559633	1763.3699633699632	
1.7521210769167786E12	3.0	0.3625263625263626	2758.4200857317815	1751.6483516483515	
1.7521210769363098E12	3.0	0.3625263625263626	2758.4200857317815	1726.7399267399267	
1.752121076955841E12	3.0	0.3625263625263626	2758.4200857317815	1695.2380952380952	
1.7521210769753723E12	3.0	0.362970362970363	2755.045871559633	1659.3406593406592	
1.7521210769949036E12	3.0	0.3625263625263626	2758.4200857317815	1611.7216117216117	
1.7521210770144348E12	3.0	0.3625263625263626	2758.4200857317815	1547.985347985348	
1.752121077033966E12	3.0	0.3625263625263626	2758.4200857317815	1487.9120879120878	
1.7521210770534973E12	3.0	0.3625263625263626	2758.4200857317815	1438.095238095238	
1.7521210770730286E12	3.0	0.3625263625263626	2758.4200857317815	1402.9304029304028	
1.7521210770925598E12	3.0	0.3625263625263626	2758.4200857317815	1380.2197802197802	
1.752121077112091E12	3.0	0.3625263625263626	2758.4200857317815	1381.6849816849815	
1.7521210771316223E12	3.0	0.3625263625263626	2758.4200857317815	1388.278388278388	
1.7521210771511536E12	3.0	0.3625263625263626	2758.4200857317815	1388.278388278388	
1.7521210771706848E12	3.0	0.3625263625263626	2758.4200857317815	1372.161172161172	
1.752121077190216E12	3.0	0.3625263625263626	2758.4200857317815	1359.7069597069597	
1.7521210772097473E12	3.0	0.3625263625263626	2758.4200857317815	1334.065934065934	
1.7521210772292786E12	3.0	0.3625263625263626	2758.4200857317815	1310.6227106227104	
1.7521210772488098E12	3.0	0.3625263625263626	2758.4200857317815	1294.5054945054944	
1.752121077268341E12	3.0	0.3625263625263626	2758.4200857317815	1279.8534798534797	
1.7521210772878723E12	3.0	0.3625263625263626	2758.4200857317815	1260.8058608058607	
1.7521210773074036E12	3.0	0.3625263625263626	2758.4200857317815	1245.4212454212454	
1.7521210773269348E12	3.0	0.3625263625263626	2758.4200857317815	1232.2344322344322	
1.752121077346466E12	3.0	0.3625263625263626	2758.4200857317815	1225.6410256410256	
1.7521210773659973E12	3.0	0.3625263625263626	2758.4200857317815	1231.5018315018315	
1.7521210773855286E12	3.0	0.3625263625263626	2758.4200857317815	1238.095238095238	
1.7521210774050598E12	3.0	0.3625263625263626	2758.4200857317815	1230.03663003663	
1.752121077424591E12	3.0	0.3625263625263626	2758.4200857317815	1220.5128205128203	
1.7521210774441223E12	3.0	0.3625263625263626	2758.4200857317815	1219.047619047619	
1.7521210774636536E12	3.0	0.3625263625263626	2758.4200857317815	1228.5714285714284	
1.7521210774831848E12	3.0	0.3625263625263626	2758.4200857317815	1237.3626373626373	
1.752121077502716E12	3.0	0.3625263625263626	2758.4200857317815	1229.3040293040292	
1.7521210775222473E12	3.0	0.3625263625263626	2758.4200857317815	1212.4542124542124	
1.7521210775417786E12	3.0	0.3625263625263626	2758.4200857317815	1198.5347985347985	
1.7521210775613098E12	3.0	0.3625263625263626	2758.4200857317815	1182.4175824175823	
1.752121077580841E12	3.0	0.3625263625263626	2758.4200857317815	1172.8937728937728	
1.7521210776003723E12	3.0	0.3625263625263626	2758.4200857317815	1173.6263736263736	
1.7521210776199036E12	3.0	0.362970362970363	2755.045871559633	1175.0915750915751	
1.7521210776394348E12	3.0	0.3625263625263626	2758.4200857317815	1174.3589743589744	
1.752121077658966E12	3.0	0.3625263625263626	2758.4200857317815	1198.5347985347985	
1.7521210776784973E12	3.0	0.3625263625263626	2758.4200857317815	1253.4798534798533	
1.7521210776980286E12	3.0	0.3625263625263626	2758.4200857317815	1358.2417582417581	
1.7521210777175598E12	3.0	0.3625263625263626	2758.4200857317815	1485.7142857142856	
1.752121077737091E12	3.0	0.3625263625263626	2758.4200857317815	1609.5238095238094	
1.7521210777566223E12	3.0	0.3625263625263626	2758.4200857317815	1713.5531135531135	
1.7521210777761536E12	3.0	0.3625263625263626	2758.4200857317815	1776.5567765567764	
1.7521210777956848E12	3.0	0.362970362970363	2755.045871559633	1797.069597069597	
1.752121077815216E12	3.0	0.362970362970363	2755.045871559633	1787.5457875457873	
1.7521210778347473E12	3.0	0.3625263625263626	2758.4200857317815	1771.4285714285713	
1.7521210778542786E12	3.0	0.362970362970363	2755.045871559633	1747.985347985348	
1.7521210778738098E12	3.0	0.362970362970363	2755.045871559633	1715.7509157509157	
1.752121077893341E12	3.0	0.362970362970363	2755.045871559633	1670.3296703296703	
1.7521210779128723E12	3.0	0.362970362970363	2755.045871559633	1609.5238095238094	
1.7521210779324036E12	3.0	0.362970362970363	2755.045871559633	1539.9267399267399	
1.7521210779519348E12	3.0	0.3625263625263626	2758.4200857317815	1471.062271062271	
1.752121077971466E12	3.0	0.362970362970363	2755.045871559633	1428.5714285714284	
1.7521210779909973E12	3.0	0.362970362970363	2755.045871559633	1405.8608058608058	
1.7521210780105286E12	3.0	0.362970362970363	2755.045871559633	1396.3369963369962	
1.7521210780300598E12	3.0	0.3625263625263626	2758.4200857317815	1380.2197802197802	
1.752121078049591E12	3.0	0.362970362970363	2755.045871559633	1373.6263736263736	
1.7521210780691223E12	3.0	0.3625263625263626	2758.4200857317815	1372.161172161172	
1.7521210780886536E12	3.0	0.362970362970363	2755.045871559633	1369.9633699633698	
1.7521210781081848E12	3.0	0.3625263625263626	2758.4200857317815	1356.7765567765566	
1.752121078127716E12	3.0	0.362970362970363	2755.045871559633	1336.9963369963368	
1.7521210781472473E12	3.0	0.362970362970363	2755.045871559633	1312.087912087912	
1.7521210781667786E12	3.0	0.3625263625263626	2758.4200857317815	1279.120879120879	
1.7521210781863098E12	3.0	0.3625263625263626	2758.4200857317815	1261.5384615384614	
1.752121078205841E12	3.0	0.3625263625263626	2758.4200857317815	1254.9450549450548	
1.7521210782253723E12	3.0	0.362970362970363	2755.045871559633	1246.153846153846	
1.7521210782449036E12	3.0	0.362970362970363	2755.045871559633	1238.8278388278388	
1.7521210782644348E12	3.0	0.3625263625263626	2758.4200857317815	1227.8388278388277	
1.752121078283966E12	3.0	0.362970362970363	2755.045871559633	1224.1758241758241	
1.7521210783034973E12	3.0	0.3625263625263626	2758.4200857317815	1209.5238095238094	
1.7521210783230286E12	3.0	0.3625263625263626	2758.4200857317815	1201.4652014652013	
1.7521210783425598E12	3.0	0.362970362970363	2755.045871559633	1208.7912087912086	
1.752121078362091E12	3.0	0.362970362970363	2755.045871559633	1216.8498168498168	
1.7521210783816223E12	3.0	0.3625263625263626	2758.4200857317815	1215.3846153846152	
1.7521210784011536E12	3.0	0.3625263625263626	2758.4200857317815	1207.3260073260074	
1.7521210784206848E12	3.0	0.362970362970363	2755.045871559633	1194.8717948717947	
1.752121078440216E12	3.0	0.362970362970363	2755.045871559633	1182.4175824175823	
1.7521210784597473E12	3.0	0.362970362970363	2755.045871559633	1180.2197802197802	
1.7521210784792786E12	3.0	0.362970362970363	2755.045871559633	1179.4871794871794	
1.7521210784988098E12	3.0	0.3625263625263626	2758.4200857317815	1177.2893772893772	
1.752121078518341E12	3.0	0.362970362970363	2755.045871559633	1187.5457875457876	
1.7521210785378723E12	3.0	0.3625263625263626	2758.4200857317815	1200.0	
1.7521210785574036E12	3.0	0.3625263625263626	2758.4200857317815	1210.2564102564102	
1.7521210785769348E12	3.0	0.3625263625263626	2758.4200857317815	1232.2344322344322	
1.752121078596466E12	3.0	0.362970362970363	2755.045871559633	1289.3772893772893	
1.7521210786159973E12	3.0	0.3625263625263626	2758.4200857317815	1374.3589743589744	
1.7521210786355286E12	3.0	0.362970362970363	2755.045871559633	1487.179487179487	
1.7521210786550598E12	3.0	0.362970362970363	2755.045871559633	1599.2673992673992	
1.752121078674591E12	3.0	0.3625263625263626	2758.4200857317815	1691.5750915750914	
1.7521210786941223E12	3.0	0.362970362970363	2755.045871559633	1745.054945054945	
1.7521210787136536E12	3.0	0.362970362970363	2755.045871559633	1762.6373626373625	
1.7521210787331848E12	3.0	0.362970362970363	2755.045871559633	1759.7069597069597	
1.752121078752716E12	3.0	0.362970362970363	2755.045871559633	1739.194139194139	
1.7521210787722473E12	3.0	0.3625263625263626	2758.4200857317815	1704.0293040293038	
1.7521210787917786E12	3.0	0.362970362970363	2755.045871559633	1660.07326007326	
1.7521210788113098E12	3.0	0.3625263625263626	2758.4200857317815	1613.186813186813	
1.752121078830841E12	3.0	0.3625263625263626	2758.4200857317815	1553.113553113553	
1.7521210788503723E12	3.0	0.362970362970363	2755.045871559633	1494.5054945054944	
1.7521210788699036E12	3.0	0.3625263625263626	2758.4200857317815	1443.956043956044	
1.7521210788894348E12	3.0	0.3625263625263626	2758.4200857317815	1406.5934065934066	
1.752121078908966E12	3.0	0.3625263625263626	2758.4200857317815	1385.3479853479853	
1.7521210789284973E12	3.0	0.3625263625263626	2758.4200857317815	1369.230769230769	
1.7521210789480286E12	3.0	0.362970362970363	2755.045871559633	1356.7765567765566	
1.7521210789675598E12	3.0	0.3625263625263626	2758.4200857317815	1352.3809523809523	
1.752121078987091E12	3.0	0.3625263625263626	2758.4200857317815	1356.0439560439559	
1.7521210790066223E12	3.0	0.3625263625263626	2758.4200857317815	1350.9157509157508	
1.7521210790261536E12	3.0	0.3625263625263626	2758.4200857317815	1327.4725274725274	
1.7521210790456848E12	3.0	0.3625263625263626	2758.4200857317815	1304.7619047619046	
1.752121079065216E12	3.0	0.3625263625263626	2758.4200857317815	1286.4468864468863	
1.7521210790847473E12	3.0	0.3625263625263626	2758.4200857317815	1280.5860805860805	
1.7521210791042786E12	3.0	0.3625263625263626	2758.4200857317815	1271.062271062271	
1.7521210791238098E12	3.0	0.3625263625263626	2758.4200857317815	1257.142857142857	
1.752121079143341E12	3.0	0.3625263625263626	2758.4200857317815	1256.4102564102564	
1.7521210791628723E12	3.0	0.3625263625263626	2758.4200857317815	1263.003663003663	
1.7521210791824036E12	3.0	0.3625263625263626	2758.4200857317815	1263.7362637362637	
1.7521210792019348E12	3.0	0.3625263625263626	2758.4200857317815	1264.4688644688645	
1.752121079221466E12	3.0	0.362970362970363	2755.045871559633	1264.4688644688645	
1.7521210792409973E12	3.0	0.3625263625263626	2758.4200857317815	1260.07326007326	
1.7521210792605286E12	3.0	0.362970362970363	2755.045871559633	1263.7362637362637	
1.7521210792800598E12	3.0	0.3625263625263626	2758.4200857317815	1260.07326007326	
1.752121079299591E12	3.0	0.3625263625263626	2758.4200857317815	1255.6776556776556	
1.7521210793191223E12	3.0	0.3625263625263626	2758.4200857317815	1255.6776556776556	
1.7521210793386536E12	3.0	0.3625263625263626	2758.4200857317815	1252.014652014652	
1.7521210793581848E12	3.0	0.362970362970363	2755.045871559633	1249.084249084249	
1.752121079377716E12	3.0	0.3625263625263626	2758.4200857317815	1251.2820512820513	
1.7521210793972473E12	3.0	0.3625263625263626	2758.4200857317815	1242.4908424908424	
1.7521210794167786E12	3.0	0.3625263625263626	2758.4200857317815	1227.8388278388277	
1.7521210794363098E12	3.0	0.3625263625263626	2758.4200857317815	1221.245421245421	
1.752121079455841E12	3.0	0.3625263625263626	2758.4200857317815	1223.4432234432234	
1.7521210794753723E12	3.0	0.3625263625263626	2758.4200857317815	1246.153846153846	
1.7521210794949036E12	3.0	0.3625263625263626	2758.4200857317815	1306.9597069597069	
1.7521210795144348E12	3.0	0.3625263625263626	2758.4200857317815	1405.128205128205	
1.752121079533966E12	3.0	0.3625263625263626	2758.4200857317815	1517.9487179487178	
1.7521210795534973E12	3.0	0.3625263625263626	2758.4200857317815	1626.3736263736262	
1.7521210795730286E12	3.0	0.3625263625263626	2758.4200857317815	1707.6923076923076	
1.7521210795925598E12	3.0	0.362970362970363	2755.045871559633	1753.113553113553	
1.752121079612091E12	3.0	0.362970362970363	2755.045871559633	1755.311355311355	
1.7521210796316223E12	3.0	0.3625263625263626	2758.4200857317815	1744.3223443223442	
1.7521210796511536E12	3.0	0.3625263625263626	2758.4200857317815	1717.216117216117	
1.7521210796706848E12	3.0	0.362970362970363	2755.045871559633	1681.3186813186812	
1.752121079690216E12	3.0	0.362970362970363	2755.045871559633	1632.2344322344322	
1.7521210797097473E12	3.0	0.362970362970363	2755.045871559633	1575.091575091575	
1.7521210797292786E12	3.0	0.362970362970363	2755.045871559633	1520.14652014652	
1.7521210797488098E12	3.0	0.3625263625263626	2758.4200857317815	1468.131868131868	
1.752121079768341E12	3.0	0.3625263625263626	2758.4200857317815	1427.8388278388277	
1.7521210797878723E12	3.0	0.362970362970363	2755.045871559633	1409.5238095238094	
1.7521210798074036E12	3.0	0.3625263625263626	2758.4200857317815	1395.6043956043954	
1.7521210798269348E12	3.0	0.362970362970363	2755.045871559633	1387.5457875457876	
1.752121079846466E12	3.0	0.3625263625263626	2758.4200857317815	1385.3479853479853	
1.7521210798659973E12	3.0	0.362970362970363	2755.045871559633	1380.952380952381	
1.7521210798855286E12	3.0	0.362970362970363	2755.045871559633	1365.5677655677655	
1.7521210799050598E12	3.0	0.3625263625263626	2758.4200857317815	1339.9267399267399	
1.752121079924591E12	3.0	0.362970362970363	2755.045871559633	1311.3553113553112	
1.7521210799441223E12	3.0	0.362970362970363	2755.045871559633	1293.040293040293	
1.7521210799636536E12	3.0	0.362970362970363	2755.045871559633	1281.3186813186812	
1.7521210799831848E12	3.0	0.362970362970363	2755.045871559633	1271.7948717948716	
1.752121080002716E12	3.0	0.3625263625263626	2758.4200857317815	1267.3992673992673	
1.7521210800222473E12	3.0	0.362970362970363	2755.045871559633	1257.142857142857	
1.7521210800417786E12	3.0	0.3625263625263626	2758.4200857317815	1257.142857142857	
1.7521210800613098E12	3.0	0.362970362970363	2755.045871559633	1250.5494505494505	
1.752121080080841E12	3.0	0.362970362970363	2755.045871559633	1241.7582417582416	
1.7521210801003723E12	3.0	0.362970362970363	2755.045871559633	1240.2930402930401	
1.7521210801199036E12	3.0	0.362970362970363	2755.045871559633	1249.8168498168498	
1.7521210801394348E12	3.0	0.362970362970363	2755.045871559633	1252.7472527472526	
1.752121080158966E12	3.0	0.362970362970363	2755.045871559633	1249.8168498168498	
1.7521210801784973E12	3.0	0.362970362970363	2755.045871559633	1245.4212454212454	
1.7521210801980286E12	3.0	0.362970362970363	2755.045871559633	1242.4908424908424	
1.7521210802175598E12	3.0	0.362970362970363	2755.045871559633	1232.967032967033	
1.752121080237091E12	3.0	0.362970362970363	2755.045871559633	1220.5128205128203	
1.7521210802566223E12	3.0	0.362970362970363	2755.045871559633	1210.989010989011	
1.7521210802761536E12	3.0	0.362970362970363	2755.045871559633	1202.9304029304028	
1.7521210802956848E12	3.0	0.362970362970363	2755.045871559633	1198.5347985347985	
1.752121080315216E12	3.0	0.362970362970363	2755.045871559633	1222.7106227106226	
1.7521210803347473E12	3.0	0.362970362970363	2755.045871559633	1274.7252747252746	
1.7521210803542786E12	3.0	0.362970362970363	2755.045871559633	1360.4395604395604	
1.7521210803738098E12	3.0	0.362970362970363	2755.045871559633	1471.062271062271	
1.752121080393341E12	3.0	0.362970362970363	2755.045871559633	1586.080586080586	
1.7521210804128723E12	3.0	0.362970362970363	2755.045871559633	1679.120879120879	
1.7521210804324036E12	3.0	0.362970362970363	2755.045871559633	1738.4615384615383	
1.7521210804519348E12	3.0	0.362970362970363	2755.045871559633	1748.7179487179485	
1.752121080471466E12	3.0	0.362970362970363	2755.045871559633	1738.4615384615383	
1.7521210804909973E12	3.0	0.362970362970363	2755.045871559633	1716.4835164835163	
1.7521210805105286E12	3.0	0.3634143634143635	2751.6799022602318	1676.1904761904761	
1.7521210805300598E12	3.0	0.3634143634143635	2751.6799022602318	1633.6996336996335	
1.752121080549591E12	3.0	0.362970362970363	2755.045871559633	1599.2673992673992	
1.7521210805691223E12	3.0	0.362970362970363	2755.045871559633	1554.5787545787546	
1.7521210805886536E12	3.0	0.362970362970363	2755.045871559633	1501.098901098901	
1.7521210806081848E12	3.0	0.362970362970363	2755.045871559633	1446.8864468864467	
1.752121080627716E12	3.0	0.3625263625263626	2758.4200857317815	1409.5238095238094	
1.7521210806472473E12	3.0	0.362970362970363	2755.045871559633	1389.7435897435896	
1.7521210806667786E12	3.0	0.362970362970363	2755.045871559633	1381.6849816849815	
1.7521210806863098E12	3.0	0.362970362970363	2755.045871559633	1374.3589743589744	
1.752121080705841E12	3.0	0.362970362970363	2755.045871559633	1363.3699633699632	
1.7521210807253723E12	3.0	0.362970362970363	2755.045871559633	1350.18315018315	
1.7521210807449036E12	3.0	0.362970362970363	2755.045871559633	1331.8681318681317	
1.7521210807644348E12	3.0	0.362970362970363	2755.045871559633	1309.89010989011	
1.752121080783966E12	3.0	0.362970362970363	2755.045871559633	1290.10989010989	
1.7521210808034973E12	3.0	0.362970362970363	2755.045871559633	1272.5274725274724	
1.7521210808230286E12	3.0	0.362970362970363	2755.045871559633	1261.5384615384614	
1.7521210808425598E12	3.0	0.362970362970363	2755.045871559633	1251.2820512820513	
1.752121080862091E12	3.0	0.362970362970363	2755.045871559633	1241.0256410256409	
1.7521210808816223E12	3.0	0.362970362970363	2755.045871559633	1233.6996336996335	
1.7521210809011536E12	3.0	0.362970362970363	2755.045871559633	1232.967032967033	
1.7521210809206848E12	3.0	0.362970362970363	2755.045871559633	1228.5714285714284	
1.752121080940216E12	3.0	0.362970362970363	2755.045871559633	1218.3150183150183	
1.7521210809597473E12	3.0	0.362970362970363	2755.045871559633	1206.5934065934066	
1.7521210809792786E12	3.0	0.362970362970363	2755.045871559633	1207.3260073260074	
1.7521210809988098E12	3.0	0.362970362970363	2755.045871559633	1201.4652014652013	
1.752121081018341E12	3.0	0.362970362970363	2755.045871559633	1200.7326007326008	
1.7521210810378723E12	3.0	0.362970362970363	2755.045871559633	1205.8608058608058	
1.7521210810574036E12	3.0	0.3634143634143635	2751.6799022602318	1204.3956043956043	
1.7521210810769348E12	3.0	0.362970362970363	2755.045871559633	1204.3956043956043	
1.752121081096466E12	3.0	0.362970362970363	2755.045871559633	1200.7326007326008	
1.7521210811159973E12	3.0	0.362970362970363	2755.045871559633	1188.278388278388	
1.7521210811355286E12	3.0	0.362970362970363	2755.045871559633	1166.3003663003662	
1.7521210811550598E12	3.0	0.362970362970363	2755.045871559633	1160.4395604395604	
1.752121081174591E12	3.0	0.362970362970363	2755.045871559633	1169.230769230769	
1.7521210811941223E12	3.0	0.362970362970363	2755.045871559633	1216.117216117216	
1.7521210812136536E12	3.0	0.362970362970363	2755.045871559633	1304.7619047619046	
1.7521210812331848E12	3.0	0.362970362970363	2755.045871559633	1422.7106227106226	
1.752121081252716E12	3.0	0.362970362970363	2755.045871559633	1549.4505494505493	
1.7521210812722473E12	3.0	0.362970362970363	2755.045871559633	1663.7362637362637	
1.7521210812917786E12	3.0	0.362970362970363	2755.045871559633	1740.6593406593406	
1.7521210813113098E12	3.0	0.362970362970363	2755.045871559633	1781.6849816849815	
1.752121081330841E12	3.0	0.362970362970363	2755.045871559633	1794.139194139194	
1.7521210813503723E12	3.0	0.362970362970363	2755.045871559633	1789.0109890109889	
1.7521210813699036E12	3.0	0.362970362970363	2755.045871559633	1772.8937728937728	
1.7521210813894348E12	3.0	0.362970362970363	2755.045871559633	1736.9963369963368	
1.752121081408966E12	3.0	0.362970362970363	2755.045871559633	1696.7032967032967	
1.7521210814284973E12	3.0	0.362970362970363	2755.045871559633	1634.4322344322343	
1.7521210814480286E12	3.0	0.362970362970363	2755.045871559633	1565.5677655677655	
1.7521210814675598E12	3.0	0.362970362970363	2755.045871559633	1505.4945054945053	
1.752121081487091E12	3.0	0.362970362970363	2755.045871559633	1456.4102564102564	
1.7521210815066223E12	3.0	0.362970362970363	2755.045871559633	1404.3956043956043	
1.7521210815261536E12	3.0	0.362970362970363	2755.045871559633	1370.6959706959706	
1.7521210815456848E12	3.0	0.362970362970363	2755.045871559633	1361.1721611721612	
1.752121081565216E12	3.0	0.362970362970363	2755.045871559633	1360.4395604395604	
1.7521210815847473E12	3.0	0.362970362970363	2755.045871559633	1358.2417582417581	
1.7521210816042786E12	3.0	0.362970362970363	2755.045871559633	1356.0439560439559	
1.7521210816238098E12	3.0	0.362970362970363	2755.045871559633	1338.4615384615383	
1.752121081643341E12	3.0	0.362970362970363	2755.045871559633	1317.9487179487178	
1.7521210816628723E12	3.0	0.362970362970363	2755.045871559633	1298.168498168498	
1.7521210816824036E12	3.0	0.3625263625263626	2758.4200857317815	1286.4468864468863	
1.7521210817019348E12	3.0	0.362970362970363	2755.045871559633	1272.5274725274724	
1.752121081721466E12	3.0	0.362970362970363	2755.045871559633	1255.6776556776556	
1.7521210817409973E12	3.0	0.362970362970363	2755.045871559633	1242.4908424908424	
1.7521210817605286E12	3.0	0.362970362970363	2755.045871559633	1236.6300366300366	
1.7521210817800598E12	3.0	0.362970362970363	2755.045871559633	1227.106227106227	
1.752121081799591E12	3.0	0.3625263625263626	2758.4200857317815	1219.047619047619	
1.7521210818191223E12	3.0	0.3625263625263626	2758.4200857317815	1213.1868131868132	
1.7521210818386536E12	3.0	0.362970362970363	2755.045871559633	1208.7912087912086	
1.7521210818581848E12	3.0	0.3625263625263626	2758.4200857317815	1198.5347985347985	
1.752121081877716E12	3.0	0.362970362970363	2755.045871559633	1203.6630036630036	
1.7521210818972473E12	3.0	0.3625263625263626	2758.4200857317815	1213.9194139194137	
1.7521210819167786E12	3.0	0.3625263625263626	2758.4200857317815	1219.047619047619	
1.7521210819363098E12	3.0	0.362970362970363	2755.045871559633	1210.2564102564102	
1.752121081955841E12	3.0	0.362970362970363	2755.045871559633	1202.197802197802	
1.7521210819753723E12	3.0	0.3625263625263626	2758.4200857317815	1208.7912087912086	
1.7521210819949036E12	3.0	0.3625263625263626	2758.4200857317815	1205.128205128205	
1.7521210820144348E12	3.0	0.3625263625263626	2758.4200857317815	1197.8021978021977	
1.752121082033966E12	3.0	0.3625263625263626	2758.4200857317815	1191.2087912087911	
1.7521210820534973E12	3.0	0.3625263625263626	2758.4200857317815	1189.7435897435896	
1.7521210820730286E12	3.0	0.3625263625263626	2758.4200857317815	1206.5934065934066	
1.7521210820925598E12	3.0	0.362970362970363	2755.045871559633	1265.9340659340658	
1.752121082112091E12	3.0	0.3625263625263626	2758.4200857317815	1362.6373626373625	
1.7521210821316223E12	3.0	0.3625263625263626	2758.4200857317815	1478.3882783882782	
1.7521210821511536E12	3.0	0.3625263625263626	2758.4200857317815	1586.8131868131868	
1.7521210821706848E12	3.0	0.3625263625263626	2758.4200857317815	1680.5860805860805	
1.752121082190216E12	3.0	0.3625263625263626	2758.4200857317815	1752.3809523809523	
1.7521210822097473E12	3.0	0.3625263625263626	2758.4200857317815	1788.278388278388	
1.7521210822292786E12	3.0	0.3625263625263626	2758.4200857317815	1794.8717948717947	
1.7521210822488098E12	3.0	0.3625263625263626	2758.4200857317815	1775.8241758241757	
1.752121082268341E12	3.0	0.3625263625263626	2758.4200857317815	1744.3223443223442	
1.7521210822878723E12	3.0	0.3625263625263626	2758.4200857317815	1708.4249084249084	
1.7521210823074036E12	3.0	0.3625263625263626	2758.4200857317815	1679.120879120879	
1.7521210823269348E12	3.0	0.3625263625263626	2758.4200857317815	1632.2344322344322	
1.752121082346466E12	3.0	0.3625263625263626	2758.4200857317815	1564.102564102564	
1.7521210823659973E12	3.0	0.3625263625263626	2758.4200857317815	1479.8534798534797	
1.7521210823855286E12	3.0	0.3625263625263626	2758.4200857317815	1411.7216117216117	
1.7521210824050598E12	3.0	0.3625263625263626	2758.4200857317815	1369.9633699633698	
1.752121082424591E12	3.0	0.3625263625263626	2758.4200857317815	1350.9157509157508	
1.7521210824441223E12	3.0	0.3625263625263626	2758.4200857317815	1352.3809523809523	
1.7521210824636536E12	3.0	0.3625263625263626	2758.4200857317815	1363.3699633699632	
1.7521210824831848E12	3.0	0.3625263625263626	2758.4200857317815	1367.032967032967	
1.752121082502716E12	3.0	0.3625263625263626	2758.4200857317815	1356.7765567765566	
1.7521210825222473E12	3.0	0.3625263625263626	2758.4200857317815	1336.9963369963368	
1.7521210825417786E12	3.0	0.3625263625263626	2758.4200857317815	1310.6227106227104	
1.7521210825613098E12	3.0	0.3625263625263626	2758.4200857317815	1290.8424908424909	
1.752121082580841E12	3.0	0.3625263625263626	2758.4200857317815	1273.260073260073	
1.7521210826003723E12	3.0	0.3625263625263626	2758.4200857317815	1265.9340659340658	
1.7521210826199036E12	3.0	0.3625263625263626	2758.4200857317815	1259.3406593406592	
1.7521210826394348E12	3.0	0.3625263625263626	2758.4200857317815	1260.07326007326	
1.752121082658966E12	3.0	0.3625263625263626	2758.4200857317815	1254.212454212454	
1.7521210826784973E12	3.0	0.3625263625263626	2758.4200857317815	1243.2234432234432	
1.7521210826980286E12	3.0	0.3625263625263626	2758.4200857317815	1238.095238095238	
1.7521210827175598E12	3.0	0.3625263625263626	2758.4200857317815	1227.106227106227	
1.752121082737091E12	3.0	0.3625263625263626	2758.4200857317815	1217.5824175824175	
1.7521210827566223E12	3.0	0.3625263625263626	2758.4200857317815	1223.4432234432234	
1.7521210827761536E12	3.0	0.3625263625263626	2758.4200857317815	1238.095238095238	
1.7521210827956848E12	3.0	0.3625263625263626	2758.4200857317815	1243.956043956044	
1.752121082815216E12	3.0	0.3625263625263626	2758.4200857317815	1239.5604395604396	
1.7521210828347473E12	3.0	0.3625263625263626	2758.4200857317815	1237.3626373626373	
1.7521210828542786E12	3.0	0.3625263625263626	2758.4200857317815	1228.5714285714284	
1.7521210828738098E12	3.0	0.3625263625263626	2758.4200857317815	1217.5824175824175	
1.752121082893341E12	3.0	0.3625263625263626	2758.4200857317815	1224.1758241758241	
1.7521210829128723E12	3.0	0.3625263625263626	2758.4200857317815	1230.03663003663	
1.7521210829324036E12	3.0	0.3625263625263626	2758.4200857317815	1224.1758241758241	
1.7521210829519348E12	3.0	0.3625263625263626	2758.4200857317815	1222.7106227106226	
1.752121082971466E12	3.0	0.3625263625263626	2758.4200857317815	1233.6996336996335	
1.7521210829909973E12	3.0	0.3625263625263626	2758.4200857317815	1285.7142857142856	
1.7521210830105286E12	3.0	0.3625263625263626	2758.4200857317815	1376.5567765567764	
1.7521210830300598E12	3.0	0.3625263625263626	2758.4200857317815	1489.3772893772893	
1.752121083049591E12	3.0	0.3625263625263626	2758.4200857317815	1608.058608058608	
1.7521210830691223E12	3.0	0.3625263625263626	2758.4200857317815	1700.3663003663003	
1.7521210830886536E12	3.0	0.3625263625263626	2758.4200857317815	1756.0439560439559	
1.7521210831081848E12	3.0	0.3625263625263626	2758.4200857317815	1784.6153846153845	
1.752121083127716E12	3.0	0.3625263625263626	2758.4200857317815	1778.7545787545787	
1.7521210831472473E12	3.0	0.3625263625263626	2758.4200857317815	1772.161172161172	
1.7521210831667786E12	3.0	0.3625263625263626	2758.4200857317815	1761.172161172161	
1.7521210831863098E12	3.0	0.3625263625263626	2758.4200857317815	1736.263736263736	
1.752121083205841E12	3.0	0.3625263625263626	2758.4200857317815	1695.970695970696	
1.7521210832253723E12	3.0	0.3625263625263626	2758.4200857317815	1630.03663003663	
1.7521210832449036E12	3.0	0.3625263625263626	2758.4200857317815	1550.18315018315	
1.7521210832644348E12	3.0	0.3625263625263626	2758.4200857317815	1472.5274725274724	
1.752121083283966E12	3.0	0.3625263625263626	2758.4200857317815	1414.6520146520145	
1.7521210833034973E12	3.0	0.3625263625263626	2758.4200857317815	1380.952380952381	
1.7521210833230286E12	3.0	0.3625263625263626	2758.4200857317815	1369.230769230769	
1.7521210833425598E12	3.0	0.3625263625263626	2758.4200857317815	1370.6959706959706	
1.752121083362091E12	3.0	0.3625263625263626	2758.4200857317815	1378.021978021978	
1.7521210833816223E12	3.0	0.3625263625263626	2758.4200857317815	1377.2893772893772	
1.7521210834011536E12	3.0	0.3625263625263626	2758.4200857317815	1367.032967032967	
1.7521210834206848E12	3.0	0.3625263625263626	2758.4200857317815	1348.7179487179487	
1.752121083440216E12	3.0	0.3625263625263626	2758.4200857317815	1338.4615384615383	
1.7521210834597473E12	3.0	0.3625263625263626	2758.4200857317815	1329.6703296703297	
1.7521210834792786E12	3.0	0.36208236208236216	2761.8025751072955	1314.2857142857142	
1.7521210834988098E12	3.0	0.3625263625263626	2758.4200857317815	1294.5054945054944	
1.752121083518341E12	3.0	0.3625263625263626	2758.4200857317815	1273.9926739926739	
1.7521210835378723E12	3.0	0.3625263625263626	2758.4200857317815	1263.003663003663	
1.7521210835574036E12	3.0	0.3625263625263626	2758.4200857317815	1256.4102564102564	
1.7521210835769348E12	3.0	0.3625263625263626	2758.4200857317815	1265.2014652014652	
1.752121083596466E12	3.0	0.3625263625263626	2758.4200857317815	1271.7948717948716	
1.7521210836159973E12	3.0	0.3625263625263626	2758.4200857317815	1270.3296703296703	
1.7521210836355286E12	3.0	0.3625263625263626	2758.4200857317815	1273.260073260073	
1.7521210836550598E12	3.0	0.3625263625263626	2758.4200857317815	1276.1904761904761	
1.752121083674591E12	3.0	0.3625263625263626	2758.4200857317815	1272.5274725274724	
1.7521210836941223E12	3.0	0.3625263625263626	2758.4200857317815	1273.260073260073	
1.7521210837136536E12	3.0	0.3625263625263626	2758.4200857317815	1273.260073260073	
1.7521210837331848E12	3.0	0.3625263625263626	2758.4200857317815	1272.5274725274724	
1.752121083752716E12	3.0	0.36208236208236216	2761.8025751072955	1262.2710622710622	
1.7521210837722473E12	3.0	0.3625263625263626	2758.4200857317815	1254.9450549450548	
1.7521210837917786E12	3.0	0.3625263625263626	2758.4200857317815	1254.212454212454	
1.7521210838113098E12	3.0	0.36208236208236216	2761.8025751072955	1257.8754578754579	
1.752121083830841E12	3.0	0.3625263625263626	2758.4200857317815	1253.4798534798533	
1.7521210838503723E12	3.0	0.3625263625263626	2758.4200857317815	1254.212454212454	
1.7521210838699036E12	3.0	0.3625263625263626	2758.4200857317815	1282.051282051282	
1.7521210838894348E12	3.0	0.3625263625263626	2758.4200857317815	1340.6593406593406	
1.752121083908966E12	3.0	0.3625263625263626	2758.4200857317815	1438.095238095238	
1.7521210839284973E12	3.0	0.3625263625263626	2758.4200857317815	1559.7069597069597	
1.7521210839480286E12	3.0	0.3625263625263626	2758.4200857317815	1663.003663003663	
1.7521210839675598E12	3.0	0.36208236208236216	2761.8025751072955	1735.5311355311353	
1.752121083987091E12	3.0	0.3625263625263626	2758.4200857317815	1769.230769230769	
1.7521210840066223E12	3.0	0.3625263625263626	2758.4200857317815	1771.4285714285713	
1.7521210840261536E12	3.0	0.3625263625263626	2758.4200857317815	1751.6483516483515	
1.7521210840456848E12	3.0	0.36208236208236216	2761.8025751072955	1723.0769230769229	
1.752121084065216E12	3.0	0.36208236208236216	2761.8025751072955	1684.9816849816848	
1.7521210840847473E12	3.0	0.3625263625263626	2758.4200857317815	1640.2930402930401	
1.7521210841042786E12	3.0	0.3625263625263626	2758.4200857317815	1586.8131868131868	
1.7521210841238098E12	3.0	0.3625263625263626	2758.4200857317815	1524.5421245421244	
1.752121084143341E12	3.0	0.3625263625263626	2758.4200857317815	1462.2710622710622	
1.7521210841628723E12	3.0	0.36208236208236216	2761.8025751072955	1406.5934065934066	
1.7521210841824036E12	3.0	0.36208236208236216	2761.8025751072955	1381.6849816849815	
1.7521210842019348E12	3.0	0.36208236208236216	2761.8025751072955	1382.4175824175823	
1.752121084221466E12	3.0	0.3625263625263626	2758.4200857317815	1383.150183150183	
1.7521210842409973E12	3.0	0.3625263625263626	2758.4200857317815	1386.8131868131868	
1.7521210842605286E12	3.0	0.36208236208236216	2761.8025751072955	1383.8827838827838	
1.7521210842800598E12	3.0	0.36208236208236216	2761.8025751072955	1378.021978021978	
1.752121084299591E12	3.0	0.36208236208236216	2761.8025751072955	1358.2417582417581	
1.7521210843191223E12	3.0	0.36208236208236216	2761.8025751072955	1339.9267399267399	
1.7521210843386536E12	3.0	0.36208236208236216	2761.8025751072955	1325.2747252747251	
1.7521210843581848E12	3.0	0.36208236208236216	2761.8025751072955	1301.098901098901	
1.752121084377716E12	3.0	0.36208236208236216	2761.8025751072955	1282.7838827838827	
1.7521210843972473E12	3.0	0.36208236208236216	2761.8025751072955	1271.062271062271	
1.7521210844167786E12	3.0	0.36208236208236216	2761.8025751072955	1265.9340659340658	
1.7521210844363098E12	3.0	0.36208236208236216	2761.8025751072955	1256.4102564102564	
1.752121084455841E12	3.0	0.36208236208236216	2761.8025751072955	1248.3516483516482	
1.7521210844753723E12	3.0	0.36208236208236216	2761.8025751072955	1243.956043956044	
1.7521210844949036E12	3.0	0.36208236208236216	2761.8025751072955	1243.2234432234432	
1.7521210845144348E12	3.0	0.36208236208236216	2761.8025751072955	1234.4322344322343	
1.752121084533966E12	3.0	0.36208236208236216	2761.8025751072955	1227.8388278388277	
1.7521210845534973E12	3.0	0.36208236208236216	2761.8025751072955	1231.5018315018315	
1.7521210845730286E12	3.0	0.36208236208236216	2761.8025751072955	1238.8278388278388	
1.7521210845925598E12	3.0	0.36208236208236216	2761.8025751072955	1238.095238095238	
1.752121084612091E12	3.0	0.36208236208236216	2761.8025751072955	1233.6996336996335	
1.7521210846316223E12	3.0	0.36208236208236216	2761.8025751072955	1230.03663003663	
1.7521210846511536E12	3.0	0.36208236208236216	2761.8025751072955	1227.8388278388277	
1.7521210846706848E12	3.0	0.36208236208236216	2761.8025751072955	1223.4432234432234	
1.752121084690216E12	3.0	0.36208236208236216	2761.8025751072955	1232.967032967033	
1.7521210847097473E12	3.0	0.36163836163836166	2765.1933701657454	1265.9340659340658	
1.7521210847292786E12	3.0	0.36163836163836166	2765.1933701657454	1326.007326007326	
1.7521210847488098E12	3.0	0.36208236208236216	2761.8025751072955	1421.245421245421	
1.752121084768341E12	3.0	0.36163836163836166	2765.1933701657454	1550.9157509157508	
1.7521210847878723E12	3.0	0.36163836163836166	2765.1933701657454	1669.5970695970695	
1.7521210848074036E12	3.0	0.36208236208236216	2761.8025751072955	1753.8461538461538	
1.7521210848269348E12	3.0	0.36208236208236216	2761.8025751072955	1801.4652014652013	
1.752121084846466E12	3.0	0.36208236208236216	2761.8025751072955	1817.5824175824175	
1.7521210848659973E12	3.0	0.36163836163836166	2765.1933701657454	1813.186813186813	
1.7521210848855286E12	3.0	0.36208236208236216	2761.8025751072955	1783.150183150183	
1.7521210849050598E12	3.0	0.36163836163836166	2765.1933701657454	1736.263736263736	
1.752121084924591E12	3.0	0.36208236208236216	2761.8025751072955	1686.4468864468863	
1.7521210849441223E12	3.0	0.36208236208236216	2761.8025751072955	1630.03663003663	
1.7521210849636536E12	3.0	0.36163836163836166	2765.1933701657454	1570.6959706959706	
1.7521210849831848E12	3.0	0.36163836163836166	2765.1933701657454	1513.5531135531135	
1.752121085002716E12	3.0	0.36208236208236216	2761.8025751072955	1458.6080586080584	
1.7521210850222473E12	3.0	0.36208236208236216	2761.8025751072955	1412.4542124542124	
1.7521210850417786E12	3.0	0.36208236208236216	2761.8025751072955	1388.278388278388	
1.7521210850613098E12	3.0	0.36163836163836166	2765.1933701657454	1377.2893772893772	
1.752121085080841E12	3.0	0.36163836163836166	2765.1933701657454	1375.091575091575	
1.7521210851003723E12	3.0	0.36163836163836166	2765.1933701657454	1367.032967032967	
1.7521210851199036E12	3.0	0.36163836163836166	2765.1933701657454	1358.2417582417581	
1.7521210851394348E12	3.0	0.36163836163836166	2765.1933701657454	1340.6593406593406	
1.752121085158966E12	3.0	0.36163836163836166	2765.1933701657454	1311.3553113553112	
1.7521210851784973E12	3.0	0.36163836163836166	2765.1933701657454	1280.5860805860805	
1.7521210851980286E12	3.0	0.36163836163836166	2765.1933701657454	1259.3406593406592	
1.7521210852175598E12	3.0	0.36163836163836166	2765.1933701657454	1252.7472527472526	
1.752121085237091E12	3.0	0.36163836163836166	2765.1933701657454	1249.8168498168498	
1.7521210852566223E12	3.0	0.36163836163836166	2765.1933701657454	1243.2234432234432	
1.7521210852761536E12	3.0	0.36163836163836166	2765.1933701657454	1235.164835164835	
1.7521210852956848E12	3.0	0.36163836163836166	2765.1933701657454	1235.8974358974358	
1.752121085315216E12	3.0	0.36163836163836166	2765.1933701657454	1236.6300366300366	
1.7521210853347473E12	3.0	0.36163836163836166	2765.1933701657454	1239.5604395604396	
1.7521210853542786E12	3.0	0.36163836163836166	2765.1933701657454	1247.6190476190475	
1.7521210853738098E12	3.0	0.36163836163836166	2765.1933701657454	1249.084249084249	
1.752121085393341E12	3.0	0.36163836163836166	2765.1933701657454	1241.0256410256409	
1.7521210854128723E12	3.0	0.36163836163836166	2765.1933701657454	1230.03663003663	
1.7521210854324036E12	3.0	0.36163836163836166	2765.1933701657454	1225.6410256410256	
1.7521210854519348E12	3.0	0.36163836163836166	2765.1933701657454	1226.3736263736264	
1.752121085471466E12	3.0	0.36163836163836166	2765.1933701657454	1227.106227106227	
1.7521210854909973E12	3.0	0.36163836163836166	2765.1933701657454	1212.4542124542124	
1.7521210855105286E12	3.0	0.36163836163836166	2765.1933701657454	1204.3956043956043	
1.7521210855300598E12	3.0	0.36163836163836166	2765.1933701657454	1205.128205128205	
1.752121085549591E12	3.0	0.36163836163836166	2765.1933701657454	1208.7912087912086	
1.7521210855691223E12	3.0	0.36163836163836166	2765.1933701657454	1232.2344322344322	
1.7521210855886536E12	3.0	0.36163836163836166	2765.1933701657454	1283.5164835164835	
1.7521210856081848E12	3.0	0.36163836163836166	2765.1933701657454	1377.2893772893772	
1.752121085627716E12	3.0	0.36163836163836166	2765.1933701657454	1506.9597069597069	
1.7521210856472473E12	3.0	0.36163836163836166	2765.1933701657454	1645.4212454212452	
1.7521210856667786E12	3.0	0.36163836163836166	2765.1933701657454	1763.3699633699632	
1.7521210856863098E12	3.0	0.36163836163836166	2765.1933701657454	1848.3516483516482	
1.752121085705841E12	3.0	0.36163836163836166	2765.1933701657454	1886.4468864468863	
1.7521210857253723E12	3.0	0.36163836163836166	2765.1933701657454	1886.4468864468863	
1.7521210857449036E12	3.0	0.36163836163836166	2765.1933701657454	1860.8058608058607	
1.7521210857644348E12	3.0	0.36163836163836166	2765.1933701657454	1820.5128205128203	
1.752121085783966E12	3.0	0.36163836163836166	2765.1933701657454	1783.8827838827838	
1.7521210858034973E12	3.0	0.36163836163836166	2765.1933701657454	1741.3919413919414	
1.7521210858230286E12	3.0	0.36163836163836166	2765.1933701657454	1673.9926739926739	
1.7521210858425598E12	3.0	0.36163836163836166	2765.1933701657454	1579.4871794871794	
1.752121085862091E12	3.0	0.36163836163836166	2765.1933701657454	1482.051282051282	
1.7521210858816223E12	3.0	0.36163836163836166	2765.1933701657454	1417.5824175824175	
1.7521210859011536E12	3.0	0.36163836163836166	2765.1933701657454	1373.6263736263736	
1.7521210859206848E12	3.0	0.36163836163836166	2765.1933701657454	1354.5787545787546	
1.752121085940216E12	3.0	0.36163836163836166	2765.1933701657454	1345.7875457875457	
1.7521210859597473E12	3.0	0.36163836163836166	2765.1933701657454	1348.7179487179487	
1.7521210859792786E12	3.0	0.36163836163836166	2765.1933701657454	1353.8461538461538	
1.7521210859988098E12	3.0	0.36163836163836166	2765.1933701657454	1353.8461538461538	
1.752121086018341E12	3.0	0.36163836163836166	2765.1933701657454	1341.3919413919414	
1.7521210860378723E12	3.0	0.36163836163836166	2765.1933701657454	1317.9487179487178	
1.7521210860574036E12	3.0	0.36163836163836166	2765.1933701657454	1290.8424908424909	
1.7521210860769348E12	3.0	0.36163836163836166	2765.1933701657454	1260.8058608058607	
1.752121086096466E12	3.0	0.36163836163836166	2765.1933701657454	1248.3516483516482	
1.7521210861159973E12	3.0	0.36163836163836166	2765.1933701657454	1247.6190476190475	
1.7521210861355286E12	3.0	0.36163836163836166	2765.1933701657454	1249.084249084249	
1.7521210861550598E12	3.0	0.36163836163836166	2765.1933701657454	1245.4212454212454	
1.752121086174591E12	3.0	0.36163836163836166	2765.1933701657454	1242.4908424908424	
1.7521210861941223E12	3.0	0.36163836163836166	2765.1933701657454	1238.8278388278388	
1.7521210862136536E12	3.0	0.36163836163836166	2765.1933701657454	1234.4322344322343	
1.7521210862331848E12	3.0	0.36163836163836166	2765.1933701657454	1233.6996336996335	
1.752121086252716E12	3.0	0.36163836163836166	2765.1933701657454	1223.4432234432234	
1.7521210862722473E12	3.0	0.36163836163836166	2765.1933701657454	1221.245421245421	
1.7521210862917786E12	3.0	0.36163836163836166	2765.1933701657454	1224.9084249084249	
1.7521210863113098E12	3.0	0.36163836163836166	2765.1933701657454	1224.9084249084249	
1.752121086330841E12	3.0	0.36119436119436127	2768.5925015365697	1229.3040293040292	
1.7521210863503723E12	3.0	0.36163836163836166	2765.1933701657454	1227.8388278388277	
1.7521210863699036E12	3.0	0.36163836163836166	2765.1933701657454	1225.6410256410256	
1.7521210863894348E12	3.0	0.36163836163836166	2765.1933701657454	1227.8388278388277	
1.752121086408966E12	3.0	0.36163836163836166	2765.1933701657454	1210.989010989011	
1.7521210864284973E12	3.0	0.36163836163836166	2765.1933701657454	1194.1391941391942	
1.7521210864480286E12	3.0	0.36163836163836166	2765.1933701657454	1202.197802197802	
1.7521210864675598E12	3.0	0.36163836163836166	2765.1933701657454	1233.6996336996335	
1.752121086487091E12	3.0	0.36163836163836166	2765.1933701657454	1316.4835164835165	
1.7521210865066223E12	3.0	0.36163836163836166	2765.1933701657454	1429.3040293040292	
1.7521210865261536E12	3.0	0.36163836163836166	2765.1933701657454	1568.4981684981683	
1.7521210865456848E12	3.0	0.36163836163836166	2765.1933701657454	1690.10989010989	
1.752121086565216E12	3.0	0.36163836163836166	2765.1933701657454	1772.161172161172	
1.7521210865847473E12	3.0	0.36163836163836166	2765.1933701657454	1814.6520146520145	
1.7521210866042786E12	3.0	0.36163836163836166	2765.1933701657454	1819.047619047619	
1.7521210866238098E12	3.0	0.36163836163836166	2765.1933701657454	1804.3956043956043	
1.752121086643341E12	3.0	0.36163836163836166	2765.1933701657454	1770.6959706959706	
1.7521210866628723E12	3.0	0.36163836163836166	2765.1933701657454	1724.5421245421244	
1.7521210866824036E12	3.0	0.36163836163836166	2765.1933701657454	1669.5970695970695	
1.7521210867019348E12	3.0	0.36163836163836166	2765.1933701657454	1614.6520146520145	
1.752121086721466E12	3.0	0.36163836163836166	2765.1933701657454	1549.4505494505493	
1.7521210867409973E12	3.0	0.36163836163836166	2765.1933701657454	1475.4578754578754	
1.7521210867605286E12	3.0	0.36163836163836166	2765.1933701657454	1407.3260073260071	
1.7521210867800598E12	3.0	0.36163836163836166	2765.1933701657454	1358.2417582417581	
1.752121086799591E12	3.0	0.36163836163836166	2765.1933701657454	1333.3333333333333	
1.7521210868191223E12	3.0	0.36163836163836166	2765.1933701657454	1326.007326007326	
1.7521210868386536E12	3.0	0.36163836163836166	2765.1933701657454	1320.14652014652	
1.7521210868581848E12	3.0	0.36163836163836166	2765.1933701657454	1314.2857142857142	
1.752121086877716E12	3.0	0.36163836163836166	2765.1933701657454	1308.4249084249084	
1.7521210868972473E12	3.0	0.36163836163836166	2765.1933701657454	1301.098901098901	
1.7521210869167786E12	3.0	0.36163836163836166	2765.1933701657454	1287.179487179487	
1.7521210869363098E12	3.0	0.36163836163836166	2765.1933701657454	1272.5274725274724	
1.752121086955841E12	3.0	0.36163836163836166	2765.1933701657454	1248.3516483516482	
1.7521210869753723E12	3.0	0.36163836163836166	2765.1933701657454	1218.3150183150183	
1.7521210869949036E12	3.0	0.36163836163836166	2765.1933701657454	1202.9304029304028	
1.7521210870144348E12	3.0	0.36163836163836166	2765.1933701657454	1206.5934065934066	
1.752121087033966E12	3.0	0.36163836163836166	2765.1933701657454	1210.989010989011	
1.7521210870534973E12	3.0	0.36163836163836166	2765.1933701657454	1201.4652014652013	
1.7521210870730286E12	3.0	0.36163836163836166	2765.1933701657454	1186.080586080586	
1.7521210870925598E12	3.0	0.36163836163836166	2765.1933701657454	1172.161172161172	
1.752121087112091E12	3.0	0.36163836163836166	2765.1933701657454	1174.3589743589744	
1.7521210871316223E12	3.0	0.36119436119436127	2768.5925015365697	1186.8131868131868	
1.7521210871511536E12	3.0	0.36119436119436127	2768.5925015365697	1200.0	
1.7521210871706848E12	3.0	0.36163836163836166	2765.1933701657454	1205.128205128205	
1.752121087190216E12	3.0	0.36119436119436127	2768.5925015365697	1206.5934065934066	
1.7521210872097473E12	3.0	0.36163836163836166	2765.1933701657454	1200.0	
1.7521210872292786E12	3.0	0.36119436119436127	2768.5925015365697	1184.6153846153845	
1.7521210872488098E12	3.0	0.36163836163836166	2765.1933701657454	1175.0915750915751	
1.752121087268341E12	3.0	0.36119436119436127	2768.5925015365697	1175.0915750915751	
1.7521210872878723E12	3.0	0.36163836163836166	2765.1933701657454	1173.6263736263736	
1.7521210873074036E12	3.0	0.36163836163836166	2765.1933701657454	1175.8241758241757	
1.7521210873269348E12	3.0	0.36163836163836166	2765.1933701657454	1178.7545787545787	
1.752121087346466E12	3.0	0.36119436119436127	2768.5925015365697	1187.5457875457876	
1.7521210873659973E12	3.0	0.36163836163836166	2765.1933701657454	1217.5824175824175	
1.7521210873855286E12	3.0	0.36163836163836166	2765.1933701657454	1287.9120879120878	
1.7521210874050598E12	3.0	0.36119436119436127	2768.5925015365697	1386.8131868131868	
1.752121087424591E12	3.0	0.36163836163836166	2765.1933701657454	1494.5054945054944	
1.7521210874441223E12	3.0	0.36119436119436127	2768.5925015365697	1596.3369963369962	
1.7521210874636536E12	3.0	0.36119436119436127	2768.5925015365697	1675.4578754578754	
1.7521210874831848E12	3.0	0.36119436119436127	2768.5925015365697	1717.9487179487178	
1.752121087502716E12	3.0	0.36119436119436127	2768.5925015365697	1732.6007326007325	
1.7521210875222473E12	3.0	0.36119436119436127	2768.5925015365697	1728.937728937729	
1.7521210875417786E12	3.0	0.36119436119436127	2768.5925015365697	1709.8901098901097	
1.7521210875613098E12	3.0	0.36119436119436127	2768.5925015365697	1679.120879120879	
1.752121087580841E12	3.0	0.36119436119436127	2768.5925015365697	1632.2344322344322	
1.7521210876003723E12	3.0	0.36119436119436127	2768.5925015365697	1567.7655677655678	
1.7521210876199036E12	3.0	0.36119436119436127	2768.5925015365697	1490.10989010989	
1.7521210876394348E12	3.0	0.36119436119436127	2768.5925015365697	1431.5018315018315	
1.752121087658966E12	3.0	0.36119436119436127	2768.5925015365697	1387.5457875457876	
1.7521210876784973E12	3.0	0.36119436119436127	2768.5925015365697	1363.3699633699632	
1.7521210876980286E12	3.0	0.36119436119436127	2768.5925015365697	1346.5201465201465	
1.7521210877175598E12	3.0	0.36119436119436127	2768.5925015365697	1330.4029304029302	
1.752121087737091E12	3.0	0.36119436119436127	2768.5925015365697	1320.14652014652	
1.7521210877566223E12	3.0	0.3607503607503608	2771.9999999999995	1324.5421245421244	
1.7521210877761536E12	3.0	0.36119436119436127	2768.5925015365697	1326.007326007326	
1.7521210877956848E12	3.0	0.36119436119436127	2768.5925015365697	1320.14652014652	
1.752121087815216E12	3.0	0.36119436119436127	2768.5925015365697	1301.8315018315018	
1.7521210878347473E12	3.0	0.36119436119436127	2768.5925015365697	1279.120879120879	
1.7521210878542786E12	3.0	0.36119436119436127	2768.5925015365697	1261.5384615384614	
1.7521210878738098E12	3.0	0.36119436119436127	2768.5925015365697	1250.5494505494505	
1.752121087893341E12	3.0	0.36119436119436127	2768.5925015365697	1235.164835164835	
1.7521210879128723E12	3.0	0.36119436119436127	2768.5925015365697	1228.5714285714284	
1.7521210879324036E12	3.0	0.3607503607503608	2771.9999999999995	1231.5018315018315	
1.7521210879519348E12	3.0	0.36119436119436127	2768.5925015365697	1243.956043956044	
1.752121087971466E12	3.0	0.36119436119436127	2768.5925015365697	1253.4798534798533	
1.7521210879909973E12	3.0	0.36119436119436127	2768.5925015365697	1259.3406593406592	
1.7521210880105286E12	3.0	0.36119436119436127	2768.5925015365697	1260.07326007326	
1.7521210880300598E12	3.0	0.36119436119436127	2768.5925015365697	1249.084249084249	
1.752121088049591E12	3.0	0.36119436119436127	2768.5925015365697	1242.4908424908424	
1.7521210880691223E12	3.0	0.36119436119436127	2768.5925015365697	1245.4212454212454	
1.7521210880886536E12	3.0	0.36119436119436127	2768.5925015365697	1242.4908424908424	
1.7521210881081848E12	3.0	0.36119436119436127	2768.5925015365697	1235.8974358974358	
1.752121088127716E12	3.0	0.3607503607503608	2771.9999999999995	1229.3040293040292	
1.7521210881472473E12	3.0	0.36119436119436127	2768.5925015365697	1218.3150183150183	
1.7521210881667786E12	3.0	0.3607503607503608	2771.9999999999995	1200.0	
1.7521210881863098E12	3.0	0.36119436119436127	2768.5925015365697	1200.7326007326008	
1.752121088205841E12	3.0	0.36119436119436127	2768.5925015365697	1204.3956043956043	
1.7521210882253723E12	3.0	0.36119436119436127	2768.5925015365697	1206.5934065934066	
1.7521210882449036E12	3.0	0.3607503607503608	2771.9999999999995	1242.4908424908424	
1.7521210882644348E12	3.0	0.3607503607503608	2771.9999999999995	1312.087912087912	
1.752121088283966E12	3.0	0.3607503607503608	2771.9999999999995	1411.7216117216117	
1.7521210883034973E12	3.0	0.36119436119436127	2768.5925015365697	1506.9597069597069	
1.7521210883230286E12	3.0	0.3607503607503608	2771.9999999999995	1588.278388278388	
1.7521210883425598E12	3.0	0.36119436119436127	2768.5925015365697	1642.4908424908424	
1.752121088362091E12	3.0	0.3607503607503608	2771.9999999999995	1684.9816849816848	
1.7521210883816223E12	3.0	0.3607503607503608	2771.9999999999995	1695.970695970696	
1.7521210884011536E12	3.0	0.36119436119436127	2768.5925015365697	1689.3772893772893	
1.7521210884206848E12	3.0	0.3607503607503608	2771.9999999999995	1657.8754578754579	
1.752121088440216E12	3.0	0.36119436119436127	2768.5925015365697	1618.3150183150183	
1.7521210884597473E12	3.0	0.3607503607503608	2771.9999999999995	1567.032967032967	
1.7521210884792786E12	3.0	0.3607503607503608	2771.9999999999995	1506.9597069597069	
1.7521210884988098E12	3.0	0.3607503607503608	2771.9999999999995	1449.084249084249	
1.752121088518341E12	3.0	0.36119436119436127	2768.5925015365697	1401.4652014652013	
1.7521210885378723E12	3.0	0.3607503607503608	2771.9999999999995	1362.6373626373625	
1.7521210885574036E12	3.0	0.3607503607503608	2771.9999999999995	1338.4615384615383	
1.7521210885769348E12	3.0	0.3607503607503608	2771.9999999999995	1327.4725274725274	
1.752121088596466E12	3.0	0.3607503607503608	2771.9999999999995	1329.6703296703297	
1.7521210886159973E12	3.0	0.3607503607503608	2771.9999999999995	1329.6703296703297	
1.7521210886355286E12	3.0	0.3607503607503608	2771.9999999999995	1324.5421245421244	
1.7521210886550598E12	3.0	0.3607503607503608	2771.9999999999995	1322.3443223443223	
1.752121088674591E12	3.0	0.3607503607503608	2771.9999999999995	1315.7509157509157	
1.7521210886941223E12	3.0	0.3607503607503608	2771.9999999999995	1298.9010989010987	
1.7521210887136536E12	3.0	0.3607503607503608	2771.9999999999995	1274.7252747252746	
1.7521210887331848E12	3.0	0.3607503607503608	2771.9999999999995	1256.4102564102564	
1.752121088752716E12	3.0	0.3607503607503608	2771.9999999999995	1256.4102564102564	
1.7521210887722473E12	3.0	0.3607503607503608	2771.9999999999995	1266.6666666666665	
1.7521210887917786E12	3.0	0.3607503607503608	2771.9999999999995	1266.6666666666665	
1.7521210888113098E12	3.0	0.3607503607503608	2771.9999999999995	1257.142857142857	
1.752121088830841E12	3.0	0.3607503607503608	2771.9999999999995	1239.5604395604396	
1.7521210888503723E12	3.0	0.3607503607503608	2771.9999999999995	1229.3040293040292	
1.7521210888699036E12	3.0	0.3607503607503608	2771.9999999999995	1232.2344322344322	
1.7521210888894348E12	3.0	0.3607503607503608	2771.9999999999995	1241.0256410256409	
1.752121088908966E12	3.0	0.3607503607503608	2771.9999999999995	1235.164835164835	
1.7521210889284973E12	3.0	0.3607503607503608	2771.9999999999995	1226.3736263736264	
1.7521210889480286E12	3.0	0.3607503607503608	2771.9999999999995	1224.9084249084249	
1.7521210889675598E12	3.0	0.3607503607503608	2771.9999999999995	1223.4432234432234	
1.752121088987091E12	3.0	0.3607503607503608	2771.9999999999995	1222.7106227106226	
1.7521210890066223E12	3.0	0.3607503607503608	2771.9999999999995	1202.9304029304028	
1.7521210890261536E12	3.0	0.3607503607503608	2771.9999999999995	1184.6153846153845	
1.7521210890456848E12	3.0	0.3607503607503608	2771.9999999999995	1170.6959706959706	
1.752121089065216E12	3.0	0.3607503607503608	2771.9999999999995	1175.8241758241757	
1.7521210890847473E12	3.0	0.3603063603063603	2775.415896487985	1212.4542124542124	
1.7521210891042786E12	3.0	0.3607503607503608	2771.9999999999995	1287.179487179487	
1.7521210891238098E12	3.0	0.3607503607503608	2771.9999999999995	1395.6043956043954	
1.752121089143341E12	3.0	0.3607503607503608	2771.9999999999995	1523.8095238095236	
1.7521210891628723E12	3.0	0.3607503607503608	2771.9999999999995	1637.3626373626373	
1.7521210891824036E12	3.0	0.3603063603063603	2775.415896487985	1720.14652014652	
1.7521210892019348E12	3.0	0.3607503607503608	2771.9999999999995	1763.3699633699632	
1.752121089221466E12	3.0	0.3607503607503608	2771.9999999999995	1772.161172161172	
1.7521210892409973E12	3.0	0.3607503607503608	2771.9999999999995	1758.974358974359	
1.7521210892605286E12	3.0	0.3607503607503608	2771.9999999999995	1723.8095238095236	
1.7521210892800598E12	3.0	0.3607503607503608	2771.9999999999995	1685.7142857142856	
1.752121089299591E12	3.0	0.3607503607503608	2771.9999999999995	1651.2820512820513	
1.7521210893191223E12	3.0	0.3607503607503608	2771.9999999999995	1611.7216117216117	
1.7521210893386536E12	3.0	0.3607503607503608	2771.9999999999995	1554.5787545787546	
1.7521210893581848E12	3.0	0.3607503607503608	2771.9999999999995	1500.3663003663003	
1.752121089377716E12	3.0	0.3607503607503608	2771.9999999999995	1450.5494505494505	
1.7521210893972473E12	3.0	0.3607503607503608	2771.9999999999995	1408.7912087912086	
1.7521210894167786E12	3.0	0.3607503607503608	2771.9999999999995	1377.2893772893772	
1.7521210894363098E12	3.0	0.3607503607503608	2771.9999999999995	1366.3003663003662	
1.752121089455841E12	3.0	0.3607503607503608	2771.9999999999995	1368.4981684981683	
1.7521210894753723E12	3.0	0.3607503607503608	2771.9999999999995	1369.230769230769	
1.7521210894949036E12	3.0	0.3607503607503608	2771.9999999999995	1364.102564102564	
1.7521210895144348E12	3.0	0.3607503607503608	2771.9999999999995	1358.974358974359	
1.752121089533966E12	3.0	0.3607503607503608	2771.9999999999995	1340.6593406593406	
1.7521210895534973E12	3.0	0.3607503607503608	2771.9999999999995	1326.7399267399267	
1.7521210895730286E12	3.0	0.3603063603063603	2775.415896487985	1318.6813186813185	
1.7521210895925598E12	3.0	0.3607503607503608	2771.9999999999995	1308.4249084249084	
1.752121089612091E12	3.0	0.3607503607503608	2771.9999999999995	1295.970695970696	
1.7521210896316223E12	3.0	0.3603063603063603	2775.415896487985	1279.8534798534797	
1.7521210896511536E12	3.0	0.3607503607503608	2771.9999999999995	1268.8644688644688	
1.7521210896706848E12	3.0	0.3607503607503608	2771.9999999999995	1269.5970695970695	
1.752121089690216E12	3.0	0.3607503607503608	2771.9999999999995	1270.3296703296703	
1.7521210897097473E12	3.0	0.3603063603063603	2775.415896487985	1257.142857142857	
1.7521210897292786E12	3.0	0.3603063603063603	2775.415896487985	1252.014652014652	
1.7521210897488098E12	3.0	0.3607503607503608	2771.9999999999995	1258.6080586080586	
1.752121089768341E12	3.0	0.3607503607503608	2771.9999999999995	1262.2710622710622	
1.7521210897878723E12	3.0	0.3607503607503608	2771.9999999999995	1255.6776556776556	
1.7521210898074036E12	3.0	0.3607503607503608	2771.9999999999995	1260.8058608058607	
1.7521210898269348E12	3.0	0.3607503607503608	2771.9999999999995	1263.003663003663	
1.752121089846466E12	3.0	0.3603063603063603	2775.415896487985	1265.2014652014652	
1.7521210898659973E12	3.0	0.3607503607503608	2771.9999999999995	1263.003663003663	
1.7521210898855286E12	3.0	0.3607503607503608	2771.9999999999995	1257.142857142857	
1.7521210899050598E12	3.0	0.3607503607503608	2771.9999999999995	1252.014652014652	
1.752121089924591E12	3.0	0.3607503607503608	2771.9999999999995	1246.153846153846	
1.7521210899441223E12	3.0	0.3607503607503608	2771.9999999999995	1243.2234432234432	
1.7521210899636536E12	3.0	0.3607503607503608	2771.9999999999995	1275.4578754578754	
1.7521210899831848E12	3.0	0.3607503607503608	2771.9999999999995	1356.0439560439559	
1.752121090002716E12	3.0	0.3607503607503608	2771.9999999999995	1475.4578754578754	
1.7521210900222473E12	3.0	0.3607503607503608	2771.9999999999995	1608.7912087912086	
1.7521210900417786E12	3.0	0.3603063603063603	2775.415896487985	1723.0769230769229	
1.7521210900613098E12	3.0	0.3607503607503608	2771.9999999999995	1803.6630036630036	
1.752121090080841E12	3.0	0.3607503607503608	2771.9999999999995	1857.8754578754576	
1.7521210901003723E12	3.0	0.3607503607503608	2771.9999999999995	1879.8534798534797	
1.7521210901199036E12	3.0	0.3607503607503608	2771.9999999999995	1877.6556776556774	
1.7521210901394348E12	3.0	0.3607503607503608	2771.9999999999995	1857.8754578754576	
1.752121090158966E12	3.0	0.3607503607503608	2771.9999999999995	1830.7692307692307	
1.7521210901784973E12	3.0	0.3603063603063603	2775.415896487985	1789.0109890109889	
1.7521210901980286E12	3.0	0.3603063603063603	2775.415896487985	1731.8681318681317	
1.7521210902175598E12	3.0	0.3607503607503608	2771.9999999999995	1663.003663003663	
1.752121090237091E12	3.0	0.3607503607503608	2771.9999999999995	1584.6153846153845	
1.7521210902566223E12	3.0	0.3603063603063603	2775.415896487985	1505.4945054945053	
1.7521210902761536E12	3.0	0.3603063603063603	2775.415896487985	1449.8168498168498	
1.7521210902956848E12	3.0	0.3603063603063603	2775.415896487985	1418.3150183150183	
1.752121090315216E12	3.0	0.3603063603063603	2775.415896487985	1408.7912087912086	
1.7521210903347473E12	3.0	0.3603063603063603	2775.415896487985	1416.117216117216	
1.7521210903542786E12	3.0	0.3603063603063603	2775.415896487985	1416.117216117216	
1.7521210903738098E12	3.0	0.3603063603063603	2775.415896487985	1407.3260073260071	
1.752121090393341E12	3.0	0.3607503607503608	2771.9999999999995	1386.8131868131868	
1.7521210904128723E12	3.0	0.3607503607503608	2771.9999999999995	1359.7069597069597	
1.7521210904324036E12	3.0	0.3607503607503608	2771.9999999999995	1325.2747252747251	
1.7521210904519348E12	3.0	0.3603063603063603	2775.415896487985	1314.2857142857142	
1.752121090471466E12	3.0	0.3607503607503608	2771.9999999999995	1308.4249084249084	
1.7521210904909973E12	3.0	0.3607503607503608	2771.9999999999995	1293.7728937728937	
1.7521210905105286E12	3.0	0.3603063603063603	2775.415896487985	1271.7948717948716	
1.7521210905300598E12	3.0	0.3603063603063603	2775.415896487985	1257.142857142857	
1.752121090549591E12	3.0	0.3603063603063603	2775.415896487985	1246.8864468864467	
1.7521210905691223E12	3.0	0.3603063603063603	2775.415896487985	1242.4908424908424	
1.7521210905886536E12	3.0	0.3603063603063603	2775.415896487985	1247.6190476190475	
1.7521210906081848E12	3.0	0.3603063603063603	2775.415896487985	1252.014652014652	
1.752121090627716E12	3.0	0.3603063603063603	2775.415896487985	1254.9450549450548	
1.7521210906472473E12	3.0	0.3603063603063603	2775.415896487985	1262.2710622710622	
1.7521210906667786E12	3.0	0.3607503607503608	2771.9999999999995	1270.3296703296703	
1.7521210906863098E12	3.0	0.3603063603063603	2775.415896487985	1271.7948717948716	
1.752121090705841E12	3.0	0.3607503607503608	2771.9999999999995	1273.9926739926739	
1.7521210907253723E12	3.0	0.3603063603063603	2775.415896487985	1276.923076923077	
1.7521210907449036E12	3.0	0.3607503607503608	2771.9999999999995	1277.6556776556777	
1.7521210907644348E12	3.0	0.3603063603063603	2775.415896487985	1273.260073260073	
1.752121090783966E12	3.0	0.3603063603063603	2775.415896487985	1263.7362637362637	
1.7521210908034973E12	3.0	0.3603063603063603	2775.415896487985	1265.2014652014652	
1.7521210908230286E12	3.0	0.3603063603063603	2775.415896487985	1264.4688644688645	
1.7521210908425598E12	3.0	0.3607503607503608	2771.9999999999995	1273.9926739926739	
1.752121090862091E12	3.0	0.3603063603063603	2775.415896487985	1306.9597069597069	
1.7521210908816223E12	3.0	0.3603063603063603	2775.415896487985	1384.6153846153845	
1.7521210909011536E12	3.0	0.3603063603063603	2775.415896487985	1493.040293040293	
1.7521210909206848E12	3.0	0.3603063603063603	2775.415896487985	1618.3150183150183	
1.752121090940216E12	3.0	0.3607503607503608	2771.9999999999995	1739.194139194139	
1.7521210909597473E12	3.0	0.3603063603063603	2775.415896487985	1840.2930402930401	
1.7521210909792786E12	3.0	0.3603063603063603	2775.415896487985	1906.9597069597069	
1.7521210909988098E12	3.0	0.3603063603063603	2775.415896487985	1917.9487179487178	
1.752121091018341E12	3.0	0.3603063603063603	2775.415896487985	1909.8901098901097	
1.7521210910378723E12	3.0	0.3603063603063603	2775.415896487985	1895.970695970696	
1.7521210910574036E12	3.0	0.3603063603063603	2775.415896487985	1861.5384615384614	
1.7521210910769348E12	3.0	0.3607503607503608	2771.9999999999995	1805.8608058608058	
1.752121091096466E12	3.0	0.3607503607503608	2771.9999999999995	1743.5897435897434	
1.7521210911159973E12	3.0	0.3607503607503608	2771.9999999999995	1673.260073260073	
1.7521210911355286E12	3.0	0.3607503607503608	2771.9999999999995	1596.3369963369962	
1.7521210911550598E12	3.0	0.3603063603063603	2775.415896487985	1515.7509157509157	
1.752121091174591E12	3.0	0.3603063603063603	2775.415896487985	1457.142857142857	
1.7521210911941223E12	3.0	0.3603063603063603	2775.415896487985	1423.4432234432234	
1.7521210912136536E12	3.0	0.3603063603063603	2775.415896487985	1404.3956043956043	
1.7521210912331848E12	3.0	0.3607503607503608	2771.9999999999995	1402.9304029304028	
1.752121091252716E12	3.0	0.3607503607503608	2771.9999999999995	1404.3956043956043	
1.7521210912722473E12	3.0	0.3607503607503608	2771.9999999999995	1403.6630036630036	
1.7521210912917786E12	3.0	0.3603063603063603	2775.415896487985	1395.6043956043954	
1.7521210913113098E12	3.0	0.3607503607503608	2771.9999999999995	1386.8131868131868	
1.752121091330841E12	3.0	0.3607503607503608	2771.9999999999995	1383.150183150183	
1.7521210913503723E12	3.0	0.3603063603063603	2775.415896487985	1365.5677655677655	
1.7521210913699036E12	3.0	0.3603063603063603	2775.415896487985	1335.5311355311355	
1.7521210913894348E12	3.0	0.3603063603063603	2775.415896487985	1316.4835164835165	
1.752121091408966E12	3.0	0.3603063603063603	2775.415896487985	1302.5641025641025	
1.7521210914284973E12	3.0	0.3603063603063603	2775.415896487985	1298.9010989010987	
1.7521210914480286E12	3.0	0.3603063603063603	2775.415896487985	1294.5054945054944	
1.7521210914675598E12	3.0	0.3607503607503608	2771.9999999999995	1287.9120879120878	
1.752121091487091E12	3.0	0.3603063603063603	2775.415896487985	1273.260073260073	
1.7521210915066223E12	3.0	0.3603063603063603	2775.415896487985	1273.260073260073	
1.7521210915261536E12	3.0	0.3603063603063603	2775.415896487985	1276.923076923077	
1.7521210915456848E12	3.0	0.3607503607503608	2771.9999999999995	1280.5860805860805	
1.752121091565216E12	3.0	0.3603063603063603	2775.415896487985	1282.7838827838827	
1.7521210915847473E12	3.0	0.3603063603063603	2775.415896487985	1290.10989010989	
1.7521210916042786E12	3.0	0.3603063603063603	2775.415896487985	1290.8424908424909	
1.7521210916238098E12	3.0	0.3603063603063603	2775.415896487985	1287.9120879120878	
1.752121091643341E12	3.0	0.3607503607503608	2771.9999999999995	1292.3076923076922	
1.7521210916628723E12	3.0	0.3607503607503608	2771.9999999999995	1279.120879120879	
1.7521210916824036E12	3.0	0.3607503607503608	2771.9999999999995	1267.3992673992673	
1.7521210917019348E12	3.0	0.3603063603063603	2775.415896487985	1265.9340659340658	
1.752121091721466E12	3.0	0.3607503607503608	2771.9999999999995	1273.9926739926739	
1.7521210917409973E12	3.0	0.3603063603063603	2775.415896487985	1304.7619047619046	
1.7521210917605286E12	3.0	0.3603063603063603	2775.415896487985	1370.6959706959706	
1.7521210917800598E12	3.0	0.3603063603063603	2775.415896487985	1485.7142857142856	
1.752121091799591E12	3.0	0.3607503607503608	2771.9999999999995	1613.186813186813	
1.7521210918191223E12	3.0	0.3607503607503608	2771.9999999999995	1727.4725274725274	
1.7521210918386536E12	3.0	0.3607503607503608	2771.9999999999995	1808.058608058608	
1.7521210918581848E12	3.0	0.3603063603063603	2775.415896487985	1838.8278388278386	
1.752121091877716E12	3.0	0.3607503607503608	2771.9999999999995	1832.234432234432	
1.7521210918972473E12	3.0	0.3607503607503608	2771.9999999999995	1821.9780219780218	
1.7521210919167786E12	3.0	0.3607503607503608	2771.9999999999995	1798.5347985347985	
1.7521210919363098E12	3.0	0.3607503607503608	2771.9999999999995	1766.3003663003662	
1.752121091955841E12	3.0	0.3607503607503608	2771.9999999999995	1706.9597069597069	
1.7521210919753723E12	3.0	0.3607503607503608	2771.9999999999995	1624.1758241758241	
1.7521210919949036E12	3.0	0.3603063603063603	2775.415896487985	1548.7179487179485	
1.7521210920144348E12	3.0	0.3603063603063603	2775.415896487985	1479.8534798534797	
1.752121092033966E12	3.0	0.3603063603063603	2775.415896487985	1427.8388278388277	
1.7521210920534973E12	3.0	0.3607503607503608	2771.9999999999995	1405.128205128205	
1.7521210920730286E12	3.0	0.3607503607503608	2771.9999999999995	1393.4065934065934	
1.7521210920925598E12	3.0	0.3607503607503608	2771.9999999999995	1393.4065934065934	
1.752121092112091E12	3.0	0.3607503607503608	2771.9999999999995	1397.8021978021977	
1.7521210921316223E12	3.0	0.3607503607503608	2771.9999999999995	1389.7435897435896	
1.7521210921511536E12	3.0	0.3607503607503608	2771.9999999999995	1379.4871794871794	
1.7521210921706848E12	3.0	0.3607503607503608	2771.9999999999995	1372.8937728937728	
1.752121092190216E12	3.0	0.3607503607503608	2771.9999999999995	1357.5091575091574	
1.7521210922097473E12	3.0	0.3607503607503608	2771.9999999999995	1331.135531135531	
1.7521210922292786E12	3.0	0.3607503607503608	2771.9999999999995	1303.2967032967033	
1.7521210922488098E12	3.0	0.3607503607503608	2771.9999999999995	1292.3076923076922	
1.752121092268341E12	3.0	0.3607503607503608	2771.9999999999995	1279.8534798534797	
1.7521210922878723E12	3.0	0.3607503607503608	2771.9999999999995	1250.5494505494505	
1.7521210923074036E12	3.0	0.3607503607503608	2771.9999999999995	1224.9084249084249	
1.7521210923269348E12	3.0	0.3607503607503608	2771.9999999999995	1214.6520146520145	
1.752121092346466E12	3.0	0.3607503607503608	2771.9999999999995	1232.967032967033	
1.7521210923659973E12	3.0	0.3607503607503608	2771.9999999999995	1242.4908424908424	
1.7521210923855286E12	3.0	0.3607503607503608	2771.9999999999995	1249.084249084249	
1.7521210924050598E12	3.0	0.3607503607503608	2771.9999999999995	1259.3406593406592	
1.752121092424591E12	3.0	0.3607503607503608	2771.9999999999995	1265.2014652014652	
1.7521210924441223E12	3.0	0.3603063603063603	2775.415896487985	1257.8754578754579	
1.7521210924636536E12	3.0	0.3607503607503608	2771.9999999999995	1244.6886446886447	
1.7521210924831848E12	3.0	0.3607503607503608	2771.9999999999995	1227.8388278388277	
1.752121092502716E12	3.0	0.3607503607503608	2771.9999999999995	1213.1868131868132	
1.7521210925222473E12	3.0	0.3603063603063603	2775.415896487985	1203.6630036630036	
1.7521210925417786E12	3.0	0.3603063603063603	2775.415896487985	1199.2673992673992	
1.7521210925613098E12	3.0	0.3607503607503608	2771.9999999999995	1201.4652014652013	
1.752121092580841E12	3.0	0.3607503607503608	2771.9999999999995	1216.117216117216	
1.7521210926003723E12	3.0	0.3603063603063603	2775.415896487985	1239.5604395604396	
1.7521210926199036E12	3.0	0.3607503607503608	2771.9999999999995	1302.5641025641025	
1.7521210926394348E12	3.0	0.3607503607503608	2771.9999999999995	1419.7802197802198	
1.752121092658966E12	3.0	0.3607503607503608	2771.9999999999995	1571.4285714285713	
1.7521210926784973E12	3.0	0.3607503607503608	2771.9999999999995	1712.8205128205127	
1.7521210926980286E12	3.0	0.3603063603063603	2775.415896487985	1828.5714285714284	
1.7521210927175598E12	3.0	0.3607503607503608	2771.9999999999995	1901.098901098901	
1.752121092737091E12	3.0	0.3607503607503608	2771.9999999999995	1920.14652014652	
1.7521210927566223E12	3.0	0.3607503607503608	2771.9999999999995	1893.040293040293	
1.7521210927761536E12	3.0	0.3603063603063603	2775.415896487985	1849.084249084249	
1.7521210927956848E12	3.0	0.3607503607503608	2771.9999999999995	1799.2673992673992	
1.752121092815216E12	3.0	0.3607503607503608	2771.9999999999995	1750.9157509157508	
1.7521210928347473E12	3.0	0.3607503607503608	2771.9999999999995	1697.4358974358972	
1.7521210928542786E12	3.0	0.3607503607503608	2771.9999999999995	1622.7106227106226	
1.7521210928738098E12	3.0	0.3607503607503608	2771.9999999999995	1540.6593406593406	
1.752121092893341E12	3.0	0.3607503607503608	2771.9999999999995	1456.4102564102564	
1.7521210929128723E12	3.0	0.3607503607503608	2771.9999999999995	1381.6849816849815	
1.7521210929324036E12	3.0	0.3607503607503608	2771.9999999999995	1331.135531135531	
1.7521210929519348E12	3.0	0.3607503607503608	2771.9999999999995	1303.2967032967033	
1.752121092971466E12	3.0	0.3607503607503608	2771.9999999999995	1304.0293040293038	
1.7521210929909973E12	3.0	0.3607503607503608	2771.9999999999995	1306.9597069597069	
1.7521210930105286E12	3.0	0.3603063603063603	2775.415896487985	1304.7619047619046	
1.7521210930300598E12	3.0	0.3603063603063603	2775.415896487985	1293.7728937728937	
1.752121093049591E12	3.0	0.3603063603063603	2775.415896487985	1279.120879120879	
1.7521210930691223E12	3.0	0.3603063603063603	2775.415896487985	1252.7472527472526	
1.7521210930886536E12	3.0	0.3607503607503608	2771.9999999999995	1235.8974358974358	
1.7521210931081848E12	3.0	0.3603063603063603	2775.415896487985	1220.5128205128203	
1.752121093127716E12	3.0	0.3603063603063603	2775.415896487985	1203.6630036630036	
1.7521210931472473E12	3.0	0.3603063603063603	2775.415896487985	1197.069597069597	
1.7521210931667786E12	3.0	0.3603063603063603	2775.415896487985	1187.5457875457876	
1.7521210931863098E12	3.0	0.3607503607503608	2771.9999999999995	1179.4871794871794	
1.752121093205841E12	3.0	0.3603063603063603	2775.415896487985	1180.2197802197802	
1.7521210932253723E12	3.0	0.3603063603063603	2775.415896487985	1182.4175824175823	
1.7521210932449036E12	3.0	0.3603063603063603	2775.415896487985	1190.4761904761904	
1.7521210932644348E12	3.0	0.3607503607503608	2771.9999999999995	1190.4761904761904	
1.752121093283966E12	3.0	0.3607503607503608	2771.9999999999995	1188.278388278388	
1.7521210933034973E12	3.0	0.3603063603063603	2775.415896487985	1189.7435897435896	
1.7521210933230286E12	3.0	0.3603063603063603	2775.415896487985	1198.5347985347985	
1.7521210933425598E12	3.0	0.3607503607503608	2771.9999999999995	1207.3260073260074	
1.752121093362091E12	3.0	0.3607503607503608	2771.9999999999995	1213.9194139194137	
1.7521210933816223E12	3.0	0.3603063603063603	2775.415896487985	1211.7216117216117	
1.7521210934011536E12	3.0	0.3607503607503608	2771.9999999999995	1194.1391941391942	
1.7521210934206848E12	3.0	0.3603063603063603	2775.415896487985	1174.3589743589744	
1.752121093440216E12	3.0	0.3603063603063603	2775.415896487985	1172.161172161172	
1.7521210934597473E12	3.0	0.3598623598623598	2778.840222085133	1167.7655677655678	
1.7521210934792786E12	3.0	0.3603063603063603	2775.415896487985	1174.3589743589744	
1.7521210934988098E12	3.0	0.3603063603063603	2775.415896487985	1216.117216117216	
1.752121093518341E12	3.0	0.3607503607503608	2771.9999999999995	1289.3772893772893	
1.7521210935378723E12	3.0	0.3603063603063603	2775.415896487985	1387.5457875457876	
1.7521210935574036E12	3.0	0.3603063603063603	2775.415896487985	1508.4249084249084	
1.7521210935769348E12	3.0	0.3603063603063603	2775.415896487985	1632.9670329670328	
1.752121093596466E12	3.0	0.3603063603063603	2775.415896487985	1723.8095238095236	
1.7521210936159973E12	3.0	0.3603063603063603	2775.415896487985	1773.6263736263736	
1.7521210936355286E12	3.0	0.3607503607503608	2771.9999999999995	1787.5457875457873	
1.7521210936550598E12	3.0	0.3603063603063603	2775.415896487985	1765.5677655677655	
1.752121093674591E12	3.0	0.3603063603063603	2775.415896487985	1735.5311355311353	
1.7521210936941223E12	3.0	0.3603063603063603	2775.415896487985	1706.227106227106	
1.7521210937136536E12	3.0	0.3603063603063603	2775.415896487985	1665.201465201465	
1.7521210937331848E12	3.0	0.3603063603063603	2775.415896487985	1603.6630036630036	
1.752121093752716E12	3.0	0.3603063603063603	2775.415896487985	1542.1245421245421	
1.7521210937722473E12	3.0	0.3603063603063603	2775.415896487985	1484.9816849816848	
1.7521210937917786E12	3.0	0.3603063603063603	2775.415896487985	1417.5824175824175	
1.7521210938113098E12	3.0	0.3603063603063603	2775.415896487985	1368.4981684981683	
1.752121093830841E12	3.0	0.3603063603063603	2775.415896487985	1338.4615384615383	
1.7521210938503723E12	3.0	0.3603063603063603	2775.415896487985	1326.007326007326	
1.7521210938699036E12	3.0	0.3603063603063603	2775.415896487985	1323.076923076923	
1.7521210938894348E12	3.0	0.3603063603063603	2775.415896487985	1329.6703296703297	
1.752121093908966E12	3.0	0.3603063603063603	2775.415896487985	1324.5421245421244	
1.7521210939284973E12	3.0	0.3603063603063603	2775.415896487985	1301.098901098901	
1.7521210939480286E12	3.0	0.3603063603063603	2775.415896487985	1268.131868131868	
1.7521210939675598E12	3.0	0.3603063603063603	2775.415896487985	1227.8388278388277	
1.752121093987091E12	3.0	0.3603063603063603	2775.415896487985	1213.1868131868132	
1.7521210940066223E12	3.0	0.3603063603063603	2775.415896487985	1209.5238095238094	
1.7521210940261536E12	3.0	0.3598623598623598	2778.840222085133	1197.8021978021977	
1.7521210940456848E12	3.0	0.3603063603063603	2775.415896487985	1190.4761904761904	
1.752121094065216E12	3.0	0.3603063603063603	2775.415896487985	1189.0109890109889	
1.7521210940847473E12	3.0	0.3603063603063603	2775.415896487985	1189.7435897435896	
1.7521210941042786E12	3.0	0.3603063603063603	2775.415896487985	1178.021978021978	
1.7521210941238098E12	3.0	0.3603063603063603	2775.415896487985	1175.0915750915751	
1.752121094143341E12	3.0	0.3603063603063603	2775.415896487985	1198.5347985347985	
1.7521210941628723E12	3.0	0.3603063603063603	2775.415896487985	1239.5604395604396	
1.7521210941824036E12	3.0	0.3603063603063603	2775.415896487985	1273.9926739926739	
1.7521210942019348E12	3.0	0.3603063603063603	2775.415896487985	1288.6446886446886	
1.752121094221466E12	3.0	0.3598623598623598	2778.840222085133	1276.1904761904761	
1.7521210942409973E12	3.0	0.3603063603063603	2775.415896487985	1257.8754578754579	
1.7521210942605286E12	3.0	0.3598623598623598	2778.840222085133	1245.4212454212454	
1.7521210942800598E12	3.0	0.3598623598623598	2778.840222085133	1238.8278388278388	
1.752121094299591E12	3.0	0.3603063603063603	2775.415896487985	1227.8388278388277	
1.7521210943191223E12	3.0	0.3603063603063603	2775.415896487985	1218.3150183150183	
1.7521210943386536E12	3.0	0.3603063603063603	2775.415896487985	1213.9194139194137	
1.7521210943581848E12	3.0	0.3598623598623598	2778.840222085133	1212.4542124542124	
1.752121094377716E12	3.0	0.3598623598623598	2778.840222085133	1209.5238095238094	
1.7521210943972473E12	3.0	0.3598623598623598	2778.840222085133	1213.1868131868132	
1.7521210944167786E12	3.0	0.3598623598623598	2778.840222085133	1252.7472527472526	
1.7521210944363098E12	3.0	0.3598623598623598	2778.840222085133	1333.3333333333333	
1.752121094455841E12	3.0	0.3603063603063603	2775.415896487985	1440.2930402930401	
1.7521210944753723E12	3.0	0.3598623598623598	2778.840222085133	1561.9047619047617	
1.7521210944949036E12	3.0	0.3598623598623598	2778.840222085133	1670.3296703296703	
1.7521210945144348E12	3.0	0.3598623598623598	2778.840222085133	1747.985347985348	
1.752121094533966E12	3.0	0.3603063603063603	2775.415896487985	1792.6739926739926	
1.7521210945534973E12	3.0	0.3598623598623598	2778.840222085133	1802.197802197802	
1.7521210945730286E12	3.0	0.3598623598623598	2778.840222085133	1787.5457875457873	
1.7521210945925598E12	3.0	0.3603063603063603	2775.415896487985	1751.6483516483515	
1.752121094612091E12	3.0	0.3598623598623598	2778.840222085133	1702.5641025641025	
1.7521210946316223E12	3.0	0.3603063603063603	2775.415896487985	1648.3516483516482	
1.7521210946511536E12	3.0	0.3598623598623598	2778.840222085133	1580.2197802197802	
1.7521210946706848E12	3.0	0.3603063603063603	2775.415896487985	1509.89010989011	
1.752121094690216E12	3.0	0.3598623598623598	2778.840222085133	1448.3516483516482	
1.7521210947097473E12	3.0	0.3598623598623598	2778.840222085133	1406.5934065934066	
1.7521210947292786E12	3.0	0.3598623598623598	2778.840222085133	1383.8827838827838	
1.7521210947488098E12	3.0	0.3598623598623598	2778.840222085133	1372.8937728937728	
1.752121094768341E12	3.0	0.3598623598623598	2778.840222085133	1368.4981684981683	
1.7521210947878723E12	3.0	0.3598623598623598	2778.840222085133	1366.3003663003662	
1.7521210948074036E12	3.0	0.3598623598623598	2778.840222085133	1366.3003663003662	
1.7521210948269348E12	3.0	0.3598623598623598	2778.840222085133	1364.102564102564	
1.752121094846466E12	3.0	0.3598623598623598	2778.840222085133	1344.3223443223442	
1.7521210948659973E12	3.0	0.3598623598623598	2778.840222085133	1315.7509157509157	
1.7521210948855286E12	3.0	0.3598623598623598	2778.840222085133	1287.9120879120878	
1.7521210949050598E12	3.0	0.3598623598623598	2778.840222085133	1274.7252747252746	
1.752121094924591E12	3.0	0.3598623598623598	2778.840222085133	1270.3296703296703	
1.7521210949441223E12	3.0	0.3598623598623598	2778.840222085133	1260.8058608058607	
1.7521210949636536E12	3.0	0.3598623598623598	2778.840222085133	1257.8754578754579	
1.7521210949831848E12	3.0	0.3598623598623598	2778.840222085133	1254.212454212454	
1.752121095002716E12	3.0	0.3598623598623598	2778.840222085133	1251.2820512820513	
1.7521210950222473E12	3.0	0.3598623598623598	2778.840222085133	1246.8864468864467	
1.7521210950417786E12	3.0	0.3598623598623598	2778.840222085133	1233.6996336996335	
1.7521210950613098E12	3.0	0.3598623598623598	2778.840222085133	1221.245421245421	
1.752121095080841E12	3.0	0.3598623598623598	2778.840222085133	1219.7802197802198	
1.7521210951003723E12	3.0	0.3598623598623598	2778.840222085133	1224.9084249084249	
1.7521210951199036E12	3.0	0.3598623598623598	2778.840222085133	1227.8388278388277	
1.7521210951394348E12	3.0	0.3598623598623598	2778.840222085133	1214.6520146520145	
1.752121095158966E12	3.0	0.3598623598623598	2778.840222085133	1197.069597069597	
1.7521210951784973E12	3.0	0.3598623598623598	2778.840222085133	1195.6043956043954	
1.7521210951980286E12	3.0	0.3598623598623598	2778.840222085133	1200.0	
1.7521210952175598E12	3.0	0.3598623598623598	2778.840222085133	1206.5934065934066	
1.752121095237091E12	3.0	0.3598623598623598	2778.840222085133	1211.7216117216117	
1.7521210952566223E12	3.0	0.3598623598623598	2778.840222085133	1218.3150183150183	
1.7521210952761536E12	3.0	0.35941835941835937	2782.2730080296483	1221.9780219780218	
1.7521210952956848E12	3.0	0.3598623598623598	2778.840222085133	1232.967032967033	
1.752121095315216E12	3.0	0.3598623598623598	2778.840222085133	1265.9340659340658	
1.7521210953347473E12	3.0	0.3598623598623598	2778.840222085133	1329.6703296703297	
1.7521210953542786E12	3.0	0.35941835941835937	2782.2730080296483	1435.8974358974358	
1.7521210953738098E12	3.0	0.3598623598623598	2778.840222085133	1559.7069597069597	
1.752121095393341E12	3.0	0.3598623598623598	2778.840222085133	1661.5384615384614	
1.7521210954128723E12	3.0	0.3598623598623598	2778.840222085133	1730.4029304029302	
1.7521210954324036E12	3.0	0.3598623598623598	2778.840222085133	1764.102564102564	
1.7521210954519348E12	3.0	0.3598623598623598	2778.840222085133	1769.230769230769	
1.752121095471466E12	3.0	0.3598623598623598	2778.840222085133	1756.7765567765566	
1.7521210954909973E12	3.0	0.35941835941835937	2782.2730080296483	1724.5421245421244	
1.7521210955105286E12	3.0	0.35941835941835937	2782.2730080296483	1679.8534798534797	
1.7521210955300598E12	3.0	0.3598623598623598	2778.840222085133	1632.2344322344322	
1.752121095549591E12	3.0	0.35941835941835937	2782.2730080296483	1572.8937728937728	
1.7521210955691223E12	3.0	0.3598623598623598	2778.840222085133	1501.8315018315018	
1.7521210955886536E12	3.0	0.35941835941835937	2782.2730080296483	1442.4908424908424	
1.7521210956081848E12	3.0	0.35941835941835937	2782.2730080296483	1401.4652014652013	
1.752121095627716E12	3.0	0.35941835941835937	2782.2730080296483	1372.161172161172	
1.7521210956472473E12	3.0	0.35941835941835937	2782.2730080296483	1358.974358974359	
1.7521210956667786E12	3.0	0.3598623598623598	2778.840222085133	1347.985347985348	
1.7521210956863098E12	3.0	0.35941835941835937	2782.2730080296483	1342.1245421245421	
1.752121095705841E12	3.0	0.35941835941835937	2782.2730080296483	1334.7985347985348	
1.7521210957253723E12	3.0	0.35941835941835937	2782.2730080296483	1339.194139194139	
1.7521210957449036E12	3.0	0.35941835941835937	2782.2730080296483	1328.937728937729	
1.7521210957644348E12	3.0	0.35941835941835937	2782.2730080296483	1303.2967032967033	
1.752121095783966E12	3.0	0.35941835941835937	2782.2730080296483	1279.8534798534797	
1.7521210958034973E12	3.0	0.35941835941835937	2782.2730080296483	1258.6080586080586	
1.7521210958230286E12	3.0	0.35941835941835937	2782.2730080296483	1241.7582417582416	
1.7521210958425598E12	3.0	0.35941835941835937	2782.2730080296483	1241.7582417582416	
1.752121095862091E12	3.0	0.35941835941835937	2782.2730080296483	1246.8864468864467	
1.7521210958816223E12	3.0	0.3598623598623598	2778.840222085133	1246.8864468864467	
1.7521210959011536E12	3.0	0.35941835941835937	2782.2730080296483	1243.956043956044	
1.7521210959206848E12	3.0	0.35941835941835937	2782.2730080296483	1241.7582417582416	
1.752121095940216E12	3.0	0.35941835941835937	2782.2730080296483	1238.8278388278388	
1.7521210959597473E12	3.0	0.35941835941835937	2782.2730080296483	1234.4322344322343	
1.7521210959792786E12	3.0	0.35941835941835937	2782.2730080296483	1225.6410256410256	
1.7521210959988098E12	3.0	0.35941835941835937	2782.2730080296483	1214.6520146520145	
1.752121096018341E12	3.0	0.3598623598623598	2778.840222085133	1213.9194139194137	
1.7521210960378723E12	3.0	0.35941835941835937	2782.2730080296483	1212.4542124542124	
1.7521210960574036E12	3.0	0.3598623598623598	2778.840222085133	1212.4542124542124	
1.7521210960769348E12	3.0	0.35941835941835937	2782.2730080296483	1221.245421245421	
1.752121096096466E12	3.0	0.35941835941835937	2782.2730080296483	1232.967032967033	
1.7521210961159973E12	3.0	0.35941835941835937	2782.2730080296483	1231.5018315018315	
1.7521210961355286E12	3.0	0.3598623598623598	2778.840222085133	1218.3150183150183	
1.7521210961550598E12	3.0	0.3598623598623598	2778.840222085133	1207.3260073260074	
1.752121096174591E12	3.0	0.3598623598623598	2778.840222085133	1202.197802197802	
1.7521210961941223E12	3.0	0.35941835941835937	2782.2730080296483	1208.7912087912086	
1.7521210962136536E12	3.0	0.35941835941835937	2782.2730080296483	1235.8974358974358	
1.7521210962331848E12	3.0	0.3598623598623598	2778.840222085133	1294.5054945054944	
1.752121096252716E12	3.0	0.35941835941835937	2782.2730080296483	1395.6043956043954	
1.7521210962722473E12	3.0	0.3598623598623598	2778.840222085133	1523.8095238095236	
1.7521210962917786E12	3.0	0.3598623598623598	2778.840222085133	1649.084249084249	
1.7521210963113098E12	3.0	0.35941835941835937	2782.2730080296483	1759.7069597069597	
1.752121096330841E12	3.0	0.3598623598623598	2778.840222085133	1837.3626373626373	
1.7521210963503723E12	3.0	0.3598623598623598	2778.840222085133	1872.5274725274724	
1.7521210963699036E12	3.0	0.3598623598623598	2778.840222085133	1877.6556776556774	
1.7521210963894348E12	3.0	0.3598623598623598	2778.840222085133	1860.07326007326	
1.752121096408966E12	3.0	0.3598623598623598	2778.840222085133	1827.8388278388277	
1.7521210964284973E12	3.0	0.3598623598623598	2778.840222085133	1780.9523809523807	
1.7521210964480286E12	3.0	0.3598623598623598	2778.840222085133	1721.6117216117216	
1.7521210964675598E12	3.0	0.3598623598623598	2778.840222085133	1652.7472527472526	
1.752121096487091E12	3.0	0.3598623598623598	2778.840222085133	1582.4175824175823	
1.7521210965066223E12	3.0	0.3598623598623598	2778.840222085133	1514.2857142857142	
1.7521210965261536E12	3.0	0.3598623598623598	2778.840222085133	1452.7472527472526	
1.7521210965456848E12	3.0	0.3598623598623598	2778.840222085133	1414.6520146520145	
1.752121096565216E12	3.0	0.3598623598623598	2778.840222085133	1409.5238095238094	
1.7521210965847473E12	3.0	0.3598623598623598	2778.840222085133	1416.117216117216	
1.7521210966042786E12	3.0	0.3598623598623598	2778.840222085133	1421.245421245421	
1.7521210966238098E12	3.0	0.3598623598623598	2778.840222085133	1416.117216117216	
1.752121096643341E12	3.0	0.3598623598623598	2778.840222085133	1402.9304029304028	
1.7521210966628723E12	3.0	0.3598623598623598	2778.840222085133	1379.4871794871794	
1.7521210966824036E12	3.0	0.3598623598623598	2778.840222085133	1354.5787545787546	
1.7521210967019348E12	3.0	0.3598623598623598	2778.840222085133	1333.3333333333333	
1.752121096721466E12	3.0	0.3598623598623598	2778.840222085133	1323.8095238095236	
1.7521210967409973E12	3.0	0.3598623598623598	2778.840222085133	1312.087912087912	
1.7521210967605286E12	3.0	0.3598623598623598	2778.840222085133	1302.5641025641025	
1.7521210967800598E12	3.0	0.3598623598623598	2778.840222085133	1295.2380952380952	
1.752121096799591E12	3.0	0.3598623598623598	2778.840222085133	1284.2490842490843	
1.7521210968191223E12	3.0	0.3598623598623598	2778.840222085133	1266.6666666666665	
1.7521210968386536E12	3.0	0.3598623598623598	2778.840222085133	1258.6080586080586	
1.7521210968581848E12	3.0	0.3598623598623598	2778.840222085133	1270.3296703296703	
1.752121096877716E12	3.0	0.3598623598623598	2778.840222085133	1278.3882783882782	
1.7521210968972473E12	3.0	0.3598623598623598	2778.840222085133	1277.6556776556777	
1.7521210969167786E12	3.0	0.3598623598623598	2778.840222085133	1273.260073260073	
1.7521210969363098E12	3.0	0.3598623598623598	2778.840222085133	1277.6556776556777	
1.752121096955841E12	3.0	0.3603063603063603	2775.415896487985	1278.3882783882782	
1.7521210969753723E12	3.0	0.3598623598623598	2778.840222085133	1276.1904761904761	
1.7521210969949036E12	3.0	0.3598623598623598	2778.840222085133	1272.5274725274724	
1.7521210970144348E12	3.0	0.3598623598623598	2778.840222085133	1271.062271062271	
1.752121097033966E12	3.0	0.3603063603063603	2775.415896487985	1263.7362637362637	
1.7521210970534973E12	3.0	0.3603063603063603	2775.415896487985	1246.8864468864467	
1.7521210970730286E12	3.0	0.3598623598623598	2778.840222085133	1245.4212454212454	
1.7521210970925598E12	3.0	0.3598623598623598	2778.840222085133	1240.2930402930401	
1.752121097112091E12	3.0	0.3598623598623598	2778.840222085133	1235.8974358974358	
1.7521210971316223E12	3.0	0.3603063603063603	2775.415896487985	1242.4908424908424	
1.7521210971511536E12	3.0	0.3598623598623598	2778.840222085133	1277.6556776556777	
1.7521210971706848E12	3.0	0.3598623598623598	2778.840222085133	1346.5201465201465	
1.752121097190216E12	3.0	0.3598623598623598	2778.840222085133	1463.7362637362637	
1.7521210972097473E12	3.0	0.3598623598623598	2778.840222085133	1597.069597069597	
1.7521210972292786E12	3.0	0.3603063603063603	2775.415896487985	1729.6703296703295	
1.7521210972488098E12	3.0	0.3603063603063603	2775.415896487985	1835.8974358974358	
1.752121097268341E12	3.0	0.3603063603063603	2775.415896487985	1896.7032967032965	
1.7521210972878723E12	3.0	0.3603063603063603	2775.415896487985	1913.5531135531135	
1.7521210973074036E12	3.0	0.3598623598623598	2778.840222085133	1897.4358974358972	
1.7521210973269348E12	3.0	0.3603063603063603	2775.415896487985	1865.9340659340658	
1.752121097346466E12	3.0	0.3603063603063603	2775.415896487985	1824.1758241758241	
1.7521210973659973E12	3.0	0.3603063603063603	2775.415896487985	1775.8241758241757	
1.7521210973855286E12	3.0	0.3603063603063603	2775.415896487985	1705.4945054945053	
1.7521210974050598E12	3.0	0.3598623598623598	2778.840222085133	1612.4542124542124	
1.752121097424591E12	3.0	0.3598623598623598	2778.840222085133	1531.135531135531	
1.7521210974441223E12	3.0	0.3603063603063603	2775.415896487985	1468.131868131868	
1.7521210974636536E12	3.0	0.3598623598623598	2778.840222085133	1432.9670329670328	
1.7521210974831848E12	3.0	0.3598623598623598	2778.840222085133	1416.117216117216	
1.752121097502716E12	3.0	0.3598623598623598	2778.840222085133	1414.6520146520145	
1.7521210975222473E12	3.0	0.3598623598623598	2778.840222085133	1410.989010989011	
1.7521210975417786E12	3.0	0.3598623598623598	2778.840222085133	1412.4542124542124	
1.7521210975613098E12	3.0	0.3598623598623598	2778.840222085133	1413.9194139194137	
1.752121097580841E12	3.0	0.3603063603063603	2775.415896487985	1402.197802197802	
1.7521210976003723E12	3.0	0.3603063603063603	2775.415896487985	1379.4871794871794	
1.7521210976199036E12	3.0	0.3598623598623598	2778.840222085133	1347.985347985348	
1.7521210976394348E12	3.0	0.3598623598623598	2778.840222085133	1321.6117216117216	
1.752121097658966E12	3.0	0.3598623598623598	2778.840222085133	1318.6813186813185	
1.7521210976784973E12	3.0	0.3598623598623598	2778.840222085133	1315.7509157509157	
1.7521210976980286E12	3.0	0.3598623598623598	2778.840222085133	1304.0293040293038	
1.7521210977175598E12	3.0	0.3598623598623598	2778.840222085133	1286.4468864468863	
1.752121097737091E12	3.0	0.3598623598623598	2778.840222085133	1276.923076923077	
1.7521210977566223E12	3.0	0.3598623598623598	2778.840222085133	1269.5970695970695	
1.7521210977761536E12	3.0	0.3598623598623598	2778.840222085133	1266.6666666666665	
1.7521210977956848E12	3.0	0.3598623598623598	2778.840222085133	1263.7362637362637	
1.752121097815216E12	3.0	0.3598623598623598	2778.840222085133	1264.4688644688645	
1.7521210978347473E12	3.0	0.3598623598623598	2778.840222085133	1267.3992673992673	
1.7521210978542786E12	3.0	0.3598623598623598	2778.840222085133	1263.003663003663	
1.7521210978738098E12	3.0	0.3598623598623598	2778.840222085133	1253.4798534798533	
1.752121097893341E12	3.0	0.3598623598623598	2778.840222085133	1241.0256410256409	
1.7521210979128723E12	3.0	0.3598623598623598	2778.840222085133	1238.095238095238	
1.7521210979324036E12	3.0	0.3598623598623598	2778.840222085133	1238.095238095238	
1.7521210979519348E12	3.0	0.3598623598623598	2778.840222085133	1236.6300366300366	
1.752121097971466E12	3.0	0.3598623598623598	2778.840222085133	1234.4322344322343	
1.7521210979909973E12	3.0	0.3598623598623598	2778.840222085133	1227.8388278388277	
1.7521210980105286E12	3.0	0.3598623598623598	2778.840222085133	1219.047619047619	
1.7521210980300598E12	3.0	0.3598623598623598	2778.840222085133	1213.1868131868132	
1.752121098049591E12	3.0	0.3598623598623598	2778.840222085133	1235.8974358974358	
1.7521210980691223E12	3.0	0.3598623598623598	2778.840222085133	1300.3663003663003	
1.7521210980886536E12	3.0	0.35941835941835937	2782.2730080296483	1415.3846153846152	
1.7521210981081848E12	3.0	0.3598623598623598	2778.840222085133	1558.974358974359	
1.752121098127716E12	3.0	0.3598623598623598	2778.840222085133	1690.10989010989	
1.7521210981472473E12	3.0	0.3598623598623598	2778.840222085133	1780.9523809523807	
1.7521210981667786E12	3.0	0.3598623598623598	2778.840222085133	1822.7106227106226	
1.7521210981863098E12	3.0	0.3598623598623598	2778.840222085133	1821.9780219780218	
1.752121098205841E12	3.0	0.3598623598623598	2778.840222085133	1786.8131868131868	
1.7521210982253723E12	3.0	0.35941835941835937	2782.2730080296483	1728.2051282051282	
1.7521210982449036E12	3.0	0.3598623598623598	2778.840222085133	1666.6666666666665	
1.7521210982644348E12	3.0	0.3598623598623598	2778.840222085133	1599.2673992673992	
1.752121098283966E12	3.0	0.3598623598623598	2778.840222085133	1537.7289377289376	
1.7521210983034973E12	3.0	0.3598623598623598	2778.840222085133	1470.3296703296703	
1.7521210983230286E12	3.0	0.35941835941835937	2782.2730080296483	1410.989010989011	
1.7521210983425598E12	3.0	0.3598623598623598	2778.840222085133	1369.230769230769	
1.752121098362091E12	3.0	0.3598623598623598	2778.840222085133	1347.985347985348	
1.7521210983816223E12	3.0	0.3598623598623598	2778.840222085133	1339.194139194139	
1.7521210984011536E12	3.0	0.35941835941835937	2782.2730080296483	1341.3919413919414	
1.7521210984206848E12	3.0	0.3598623598623598	2778.840222085133	1340.6593406593406	
1.752121098440216E12	3.0	0.35941835941835937	2782.2730080296483	1340.6593406593406	
1.7521210984597473E12	3.0	0.35941835941835937	2782.2730080296483	1326.7399267399267	
1.7521210984792786E12	3.0	0.3598623598623598	2778.840222085133	1306.227106227106	
1.7521210984988098E12	3.0	0.3598623598623598	2778.840222085133	1282.051282051282	
1.752121098518341E12	3.0	0.35941835941835937	2782.2730080296483	1265.9340659340658	
1.7521210985378723E12	3.0	0.3598623598623598	2778.840222085133	1260.07326007326	
1.7521210985574036E12	3.0	0.35941835941835937	2782.2730080296483	1252.014652014652	
1.7521210985769348E12	3.0	0.35941835941835937	2782.2730080296483	1243.2234432234432	
1.752121098596466E12	3.0	0.3598623598623598	2778.840222085133	1238.095238095238	
1.7521210986159973E12	3.0	0.35941835941835937	2782.2730080296483	1229.3040293040292	
1.7521210986355286E12	3.0	0.35941835941835937	2782.2730080296483	1221.245421245421	
1.7521210986550598E12	3.0	0.35941835941835937	2782.2730080296483	1216.117216117216	
1.752121098674591E12	3.0	0.35941835941835937	2782.2730080296483	1205.8608058608058	
1.7521210986941223E12	3.0	0.35941835941835937	2782.2730080296483	1198.5347985347985	
1.7521210987136536E12	3.0	0.35941835941835937	2782.2730080296483	1195.6043956043954	
1.7521210987331848E12	3.0	0.3598623598623598	2778.840222085133	1200.7326007326008	
1.752121098752716E12	3.0	0.35941835941835937	2782.2730080296483	1209.5238095238094	
1.7521210987722473E12	3.0	0.35941835941835937	2782.2730080296483	1213.1868131868132	
1.7521210987917786E12	3.0	0.35941835941835937	2782.2730080296483	1216.117216117216	
1.7521210988113098E12	3.0	0.35941835941835937	2782.2730080296483	1218.3150183150183	
1.752121098830841E12	3.0	0.35941835941835937	2782.2730080296483	1212.4542124542124	
1.7521210988503723E12	3.0	0.35941835941835937	2782.2730080296483	1197.069597069597	
1.7521210988699036E12	3.0	0.35941835941835937	2782.2730080296483	1200.0	
1.7521210988894348E12	3.0	0.35941835941835937	2782.2730080296483	1199.2673992673992	
1.752121098908966E12	3.0	0.35941835941835937	2782.2730080296483	1186.8131868131868	
1.7521210989284973E12	3.0	0.35941835941835937	2782.2730080296483	1191.9413919413919	
1.7521210989480286E12	3.0	0.35941835941835937	2782.2730080296483	1228.5714285714284	
1.7521210989675598E12	3.0	0.35941835941835937	2782.2730080296483	1306.9597069597069	
1.752121098987091E12	3.0	0.35897435897435886	2785.7142857142862	1410.2564102564102	
1.7521210990066223E12	3.0	0.35941835941835937	2782.2730080296483	1536.263736263736	
1.7521210990261536E12	3.0	0.35941835941835937	2782.2730080296483	1647.6190476190475	
1.7521210990456848E12	3.0	0.35941835941835937	2782.2730080296483	1732.6007326007325	
1.752121099065216E12	3.0	0.35941835941835937	2782.2730080296483	1773.6263736263736	
1.7521210990847473E12	3.0	0.35941835941835937	2782.2730080296483	1785.3479853479853	
1.7521210991042786E12	3.0	0.35941835941835937	2782.2730080296483	1768.4981684981683	
1.7521210991238098E12	3.0	0.35941835941835937	2782.2730080296483	1735.5311355311353	
1.752121099143341E12	3.0	0.35941835941835937	2782.2730080296483	1703.296703296703	
1.7521210991628723E12	3.0	0.35897435897435886	2785.7142857142862	1665.9340659340658	
1.7521210991824036E12	3.0	0.35941835941835937	2782.2730080296483	1616.8498168498168	
1.7521210992019348E12	3.0	0.35941835941835937	2782.2730080296483	1550.18315018315	
1.752121099221466E12	3.0	0.35941835941835937	2782.2730080296483	1479.120879120879	
1.7521210992409973E12	3.0	0.35941835941835937	2782.2730080296483	1419.7802197802198	
1.7521210992605286E12	3.0	0.35941835941835937	2782.2730080296483	1385.3479853479853	
1.7521210992800598E12	3.0	0.35941835941835937	2782.2730080296483	1358.2417582417581	
1.752121099299591E12	3.0	0.35941835941835937	2782.2730080296483	1342.8571428571427	
