"sep=	"
id95AE_Timestamp_Unix_CAL	id95AE_GSR_Range_CAL	id95AE_GSR_Skin_Conductance_CAL	id95AE_GSR_Skin_Resistance_CAL	id95AE_PPG_A13_CAL	
ms	no_units	uS	kOhms	mV	
1.7494311408439941E12	2.0	2.9223443223443226	342.191025319629	0.0	
1.7494311408635254E12	2.0	2.9223443223443226	342.191025319629	0.0	
1.7494311408830566E12	0.0	1.2938968162848767	772.859154929577	0.0	
1.749431140902588E12	0.0	1.2938968162848767	772.859154929577	0.0	
1.7494311409221191E12	0.0	1.2938968162848767	772.859154929577	0.0	
1.7494311409416504E12	0.0	1.2938968162848767	772.859154929577	0.0	
1.7494311409611816E12	0.0	1.2938968162848767	772.859154929577	0.0	
1.749431140980713E12	1.0	1.3197023649985324	757.7466150870406	0.0	
1.7494311410002441E12	1.0	1.3197023649985324	757.7466150870406	0.0	
1.7494311410197754E12	1.0	1.3197023649985324	757.7466150870406	0.0	
1.7494311410393066E12	1.0	1.3197023649985324	757.7466150870406	0.0	
1.749431141058838E12	1.0	1.3197023649985324	757.7466150870406	0.0	
1.7494311410783691E12	2.0	1.3164835164835167	759.5993322203672	0.0	
1.7494311410979004E12	2.0	1.3164835164835167	759.5993322203672	0.0	
1.7494311411174316E12	2.0	1.3164835164835167	759.5993322203672	0.0	
1.749431141136963E12	2.0	1.3164835164835167	759.5993322203672	0.0	
1.7494311411564941E12	2.0	1.3164835164835167	759.5993322203672	0.0	
1.7494311411760254E12	3.0	1.3206793206793208	757.1860816944024	0.0	
1.7494311411955566E12	3.0	1.3206793206793208	757.1860816944024	0.0	
1.749431141215088E12	3.0	1.3206793206793208	757.1860816944024	0.0	
1.7494311412346191E12	3.0	1.3206793206793208	757.1860816944024	0.0	
1.7494311412541504E12	3.0	1.32023532023532	757.4407264166807	0.0	
1.7494311412736816E12	3.0	1.32023532023532	757.4407264166807	0.0	
1.749431141293213E12	3.0	1.32023532023532	757.4407264166807	0.0	
1.7494311413127441E12	3.0	1.32023532023532	757.4407264166807	0.0	
1.7494311413322754E12	3.0	1.32023532023532	757.4407264166807	0.0	
1.7494311413518066E12	3.0	1.3197913197913198	757.6955424726661	0.0	
1.749431141371338E12	3.0	1.3197913197913198	757.6955424726661	0.0	
1.7494311413908691E12	3.0	1.3193473193473193	757.9505300353358	0.0	
1.7494311414104004E12	3.0	1.3193473193473193	757.9505300353358	0.0	
1.7494311414299316E12	3.0	1.3193473193473193	757.9505300353358	0.0	
1.749431141449463E12	3.0	1.3193473193473193	757.9505300353358	0.0	
1.7494311414689941E12	3.0	1.3189033189033188	758.2056892778994	0.0	
1.7494311414885254E12	3.0	1.3189033189033188	758.2056892778994	0.0	
1.7494311415080566E12	3.0	1.3189033189033188	758.2056892778994	0.0	
1.749431141527588E12	3.0	1.3184593184593183	758.4610203738004	0.0	
1.7494311415471191E12	3.0	1.3184593184593183	758.4610203738004	0.0	
1.7494311415666504E12	3.0	1.3184593184593183	758.4610203738004	0.0	
1.7494311415861816E12	3.0	1.3184593184593183	758.4610203738004	0.0	
1.749431141605713E12	3.0	1.318015318015318	758.7165234967156	0.0	
1.7494311416252441E12	3.0	1.318015318015318	758.7165234967156	0.0	
1.7494311416447754E12	3.0	1.3175713175713175	758.9721988205561	0.0	
1.7494311416643066E12	3.0	1.3175713175713175	758.9721988205561	0.0	
1.749431141683838E12	3.0	1.3175713175713175	758.9721988205561	0.0	
1.7494311417033691E12	3.0	1.3175713175713175	758.9721988205561	0.0	
1.7494311417229004E12	3.0	1.3171273171273172	759.2280465194674	0.0	
1.7494311417424316E12	3.0	1.3166833166833167	759.4840667678301	0.0	
1.749431141761963E12	3.0	1.3166833166833167	759.4840667678301	0.0	
1.7494311417814941E12	3.0	1.3166833166833167	759.4840667678301	0.0	
1.7494311418010254E12	3.0	1.3166833166833167	759.4840667678301	0.0	
1.7494311418205566E12	3.0	1.316239316239316	759.7402597402598	0.0	
1.749431141840088E12	3.0	1.316239316239316	759.7402597402598	0.0	
1.7494311418596191E12	3.0	1.3157953157953157	759.9966256116079	0.0	
1.7494311418791504E12	3.0	1.3157953157953157	759.9966256116079	0.0	
1.7494311418986816E12	3.0	1.316239316239316	759.7402597402598	0.0	
1.749431141918213E12	3.0	1.3157953157953157	759.9966256116079	0.0	
1.7494311419377441E12	3.0	1.3157953157953157	759.9966256116079	0.0	
1.7494311419572754E12	3.0	1.3153513153513152	760.2531645569621	0.0	
1.7494311419768066E12	3.0	1.3153513153513152	760.2531645569621	0.0	
1.749431141996338E12	3.0	1.3153513153513152	760.2531645569621	0.0	
1.7494311420158691E12	3.0	1.3153513153513152	760.2531645569621	0.0	
1.7494311420354004E12	3.0	1.3149073149073147	760.5098767516462	0.0	
1.7494311420549316E12	3.0	1.3149073149073147	760.5098767516462	0.0	
1.749431142074463E12	3.0	1.3144633144633144	760.7667623712211	0.0	
1.7494311420939941E12	3.0	1.3144633144633144	760.7667623712211	0.0	
1.7494311421135254E12	3.0	1.3144633144633144	760.7667623712211	0.0	
1.7494311421330566E12	3.0	1.3144633144633144	760.7667623712211	0.0	
1.749431142152588E12	3.0	1.314019314019314	761.0238215914851	0.0	
1.7494311421721191E12	3.0	1.314019314019314	761.0238215914851	0.0	
1.7494311421916504E12	3.0	1.3135753135753134	761.2810545884739	0.0	
1.7494311422111816E12	3.0	1.3135753135753134	761.2810545884739	0.0	
1.749431142230713E12	3.0	1.3131313131313131	761.5384615384615	0.0	
1.7494311422502441E12	3.0	1.3131313131313131	761.5384615384615	0.0	
1.7494311422697754E12	3.0	1.3126873126873129	761.7960426179604	0.0	
1.7494311422893066E12	3.0	1.3126873126873129	761.7960426179604	0.0	
1.749431142308838E12	3.0	1.3126873126873129	761.7960426179604	0.0	
1.7494311423283691E12	3.0	1.3126873126873129	761.7960426179604	0.0	
1.7494311423479004E12	3.0	1.3126873126873129	761.7960426179604	0.0	
1.7494311423674316E12	3.0	1.3126873126873129	761.7960426179604	0.0	
1.749431142386963E12	3.0	1.3126873126873129	761.7960426179604	0.0	
1.7494311424064941E12	3.0	1.3122433122433121	762.0537980037219	0.0	
1.7494311424260254E12	3.0	1.3122433122433121	762.0537980037219	0.0	
1.7494311424455566E12	3.0	1.3117993117993116	762.3117278727366	0.0	
1.749431142465088E12	3.0	1.3117993117993116	762.3117278727366	0.0	
1.7494311424846191E12	3.0	1.3117993117993116	762.3117278727366	0.0	
1.7494311425041504E12	3.0	1.3113553113553114	762.5698324022347	0.0	
1.7494311425236816E12	3.0	1.3113553113553114	762.5698324022347	0.0	
1.749431142543213E12	3.0	1.3109113109113109	762.8281117696868	0.0	
1.7494311425627441E12	3.0	1.3109113109113109	762.8281117696868	0.0	
1.7494311425822754E12	3.0	1.3109113109113109	762.8281117696868	0.0	
1.7494311426018066E12	3.0	1.3109113109113109	762.8281117696868	0.0	
1.749431142621338E12	3.0	1.3104673104673104	763.0865661528037	0.0	
1.7494311426408691E12	3.0	1.3104673104673104	763.0865661528037	0.0	
1.7494311426604004E12	3.0	1.3104673104673104	763.0865661528037	0.0	
1.7494311426799316E12	3.0	1.3104673104673104	763.0865661528037	0.0	
1.749431142699463E12	3.0	1.3104673104673104	763.0865661528037	0.0	
1.7494311427189941E12	3.0	1.31002331002331	763.3451957295374	0.0	
1.7494311427385254E12	3.0	1.3095793095793093	763.6040006780811	0.0	
1.7494311427580566E12	3.0	1.3095793095793093	763.6040006780811	0.0	
1.749431142777588E12	3.0	1.3095793095793093	763.6040006780811	0.0	
1.7494311427971191E12	3.0	1.3095793095793093	763.6040006780811	0.0	
1.7494311428166504E12	3.0	1.309135309135309	763.8629811768697	0.0	
1.7494311428361816E12	3.0	1.309135309135309	763.8629811768697	0.0	
1.749431142855713E12	3.0	1.309135309135309	763.8629811768697	0.0	
1.7494311428752441E12	3.0	1.309135309135309	763.8629811768697	0.0	
1.7494311428947754E12	3.0	1.3086913086913088	764.1221374045801	0.0	
1.7494311429143066E12	3.0	1.3086913086913088	764.1221374045801	0.0	
1.749431142933838E12	3.0	1.3086913086913088	764.1221374045801	0.0	
1.7494311429533691E12	3.0	1.3086913086913088	764.1221374045801	0.0	
1.7494311429729004E12	3.0	1.308247308247308	764.3814695401325	0.0	
1.7494311429924316E12	3.0	1.308247308247308	764.3814695401325	0.0	
1.749431143011963E12	3.0	1.3078033078033078	764.6409777626889	0.0	
1.7494311430314941E12	3.0	1.3078033078033078	764.6409777626889	0.0	
1.7494311430510254E12	3.0	1.3078033078033078	764.6409777626889	0.0	
1.7494311430705566E12	3.0	1.3078033078033078	764.6409777626889	0.0	
1.749431143090088E12	3.0	1.3078033078033078	764.6409777626889	0.0	
1.7494311431096191E12	3.0	1.3078033078033078	764.6409777626889	0.0	
1.7494311431291504E12	3.0	1.3078033078033078	764.6409777626889	0.0	
1.7494311431486816E12	3.0	1.3073593073593073	764.9006622516557	0.0	
1.749431143168213E12	3.0	1.3073593073593073	764.9006622516557	0.0	
1.7494311431877441E12	3.0	1.3073593073593073	764.9006622516557	0.0	
1.7494311432072754E12	3.0	1.3073593073593073	764.9006622516557	0.0	
1.7494311432268066E12	3.0	1.3064713064713065	765.4205607476636	0.0	
1.749431143246338E12	3.0	1.3069153069153068	765.1605231866826	0.0	
1.7494311432658691E12	3.0	1.3069153069153068	765.1605231866826	0.0	
1.7494311432854004E12	3.0	1.3064713064713065	765.4205607476636	0.0	
1.7494311433049316E12	3.0	1.306027306027306	765.6807751147375	0.0	
1.749431143324463E12	3.0	1.3055833055833055	765.9411664682877	0.0	
1.7494311433439941E12	3.0	1.3051393051393052	766.2017349889437	0.0	
1.7494311433635254E12	3.0	1.3055833055833055	765.9411664682877	0.0	
1.7494311433830566E12	3.0	1.3055833055833055	765.9411664682877	0.0	
1.749431143402588E12	3.0	1.3055833055833055	765.9411664682877	0.0	
1.7494311434221191E12	3.0	1.3051393051393052	766.2017349889437	0.0	
1.7494311434416504E12	3.0	1.3051393051393052	766.2017349889437	0.0	
1.7494311434611816E12	3.0	1.3051393051393052	766.2017349889437	0.0	
1.749431143480713E12	3.0	1.3046953046953047	766.4624808575804	0.0	
1.7494311435002441E12	3.0	1.3051393051393052	766.2017349889437	0.0	
1.7494311435197754E12	3.0	1.3046953046953047	766.4624808575804	0.0	
1.7494311435393066E12	3.0	1.3046953046953047	766.4624808575804	0.0	
1.749431143558838E12	3.0	1.3046953046953047	766.4624808575804	0.0	
1.7494311435783691E12	3.0	1.304251304251304	766.7234042553192	0.0	
1.7494311435979004E12	3.0	1.304251304251304	766.7234042553192	0.0	
1.7494311436174316E12	3.0	1.304251304251304	766.7234042553192	0.0	
1.749431143636963E12	3.0	1.303807303807304	766.984505363528	0.0	
1.7494311436564941E12	3.0	1.303807303807304	766.984505363528	0.0	
1.7494311436760254E12	3.0	1.3033633033633034	767.2457843638222	0.0	
1.7494311436955566E12	3.0	1.3024753024753024	767.7688767683654	0.0	
1.749431143715088E12	3.0	1.3033633033633034	767.2457843638222	0.0	
1.7494311437346191E12	3.0	1.3033633033633034	767.2457843638222	0.0	
1.7494311437541504E12	3.0	1.302919302919303	767.5072414380644	0.0	
1.7494311437736816E12	3.0	1.302919302919303	767.5072414380644	21.978021978021978	
1.749431143793213E12	3.0	1.3024753024753024	767.7688767683654	330.4029304029304	
1.7494311438127441E12	3.0	1.3024753024753024	767.7688767683654	669.5970695970695	
1.7494311438322754E12	3.0	1.3024753024753024	767.7688767683654	942.124542124542	
1.7494311438518066E12	3.0	1.3024753024753024	767.7688767683654	1124.5421245421244	
1.749431143871338E12	3.0	1.3024753024753024	767.7688767683654	1217.5824175824175	
1.7494311438908691E12	3.0	1.3020313020313021	768.0306905370844	1255.6776556776556	
1.7494311439104004E12	3.0	1.3020313020313021	768.0306905370844	1271.7948717948716	
1.7494311439299316E12	3.0	1.3020313020313021	768.0306905370844	1270.3296703296703	
1.749431143949463E12	3.0	1.3020313020313021	768.0306905370844	1260.8058608058607	
1.7494311439689941E12	3.0	1.3015873015873014	768.2926829268293	1246.8864468864467	
1.7494311439885254E12	3.0	1.3015873015873014	768.2926829268293	1242.4908424908424	
1.7494311440080566E12	3.0	1.3011433011433011	768.5548541204573	1242.4908424908424	
1.749431144027588E12	3.0	1.3011433011433011	768.5548541204573	1243.2234432234432	
1.7494311440471191E12	3.0	1.3011433011433011	768.5548541204573	1242.4908424908424	
1.7494311440666504E12	3.0	1.3011433011433011	768.5548541204573	1245.4212454212454	
1.7494311440861816E12	3.0	1.3006993006993006	768.8172043010753	1255.6776556776556	
1.749431144105713E12	3.0	1.3006993006993006	768.8172043010753	1260.8058608058607	
1.7494311441252441E12	3.0	1.3006993006993006	768.8172043010753	1272.5274725274724	
1.7494311441447754E12	3.0	1.3002553002553001	769.0797336520403	1312.8205128205127	
1.7494311441643066E12	3.0	1.3002553002553001	769.0797336520403	1377.2893772893772	
1.749431144183838E12	3.0	1.3002553002553001	769.0797336520403	1448.3516483516482	
1.7494311442033691E12	3.0	1.3002553002553001	769.0797336520403	1512.8205128205127	
1.7494311442229004E12	3.0	1.2998112998112998	769.3424423569599	1553.8461538461538	
1.7494311442424316E12	3.0	1.2998112998112998	769.3424423569599	1547.985347985348	
1.749431144261963E12	3.0	1.2998112998112998	769.3424423569599	1514.2857142857142	
1.7494311442814941E12	3.0	1.2993672993672993	769.6053305996925	1471.062271062271	
1.7494311443010254E12	3.0	1.2993672993672993	769.6053305996925	1417.5824175824175	
1.7494311443205566E12	3.0	1.2993672993672993	769.6053305996925	1364.8351648351647	
1.749431144340088E12	3.0	1.2989232989232988	769.868398564348	1317.216117216117	
1.7494311443596191E12	3.0	1.2989232989232988	769.868398564348	1271.7948717948716	
1.7494311443791504E12	3.0	1.2989232989232988	769.868398564348	1243.956043956044	
1.7494311443986816E12	3.0	1.2989232989232988	769.868398564348	1234.4322344322343	
1.749431144418213E12	3.0	1.2989232989232988	769.868398564348	1246.153846153846	
1.7494311444377441E12	3.0	1.2984792984792985	770.1316464352881	1270.3296703296703	
1.7494311444572754E12	3.0	1.2984792984792985	770.1316464352881	1291.5750915750914	
1.7494311444768066E12	3.0	1.2984792984792985	770.1316464352881	1304.0293040293038	
1.749431144496338E12	3.0	1.2984792984792985	770.1316464352881	1298.9010989010987	
1.7494311445158691E12	3.0	1.298035298035298	770.3950743971268	1274.7252747252746	
1.7494311445354004E12	3.0	1.298035298035298	770.3950743971268	1255.6776556776556	
1.7494311445549316E12	3.0	1.2975912975912975	770.6586826347306	1249.8168498168498	
1.749431144574463E12	3.0	1.2975912975912975	770.6586826347306	1241.7582417582416	
1.7494311445939941E12	3.0	1.2975912975912975	770.6586826347306	1235.8974358974358	
1.7494311446135254E12	3.0	1.2975912975912975	770.6586826347306	1253.4798534798533	
1.7494311446330566E12	3.0	1.297147297147297	770.9224713332193	1291.5750915750914	
1.749431144652588E12	3.0	1.297147297147297	770.9224713332193	1314.2857142857142	
1.7494311446721191E12	3.0	1.2967032967032968	771.1864406779662	1322.3443223443223	
1.7494311446916504E12	3.0	1.2967032967032968	771.1864406779662	1321.6117216117216	
1.7494311447111816E12	3.0	1.2967032967032968	771.1864406779662	1323.8095238095236	
1.749431144730713E12	3.0	1.296259296259296	771.4505908545984	1330.4029304029302	
1.7494311447502441E12	3.0	1.296259296259296	771.4505908545984	1336.9963369963368	
1.7494311447697754E12	3.0	1.296259296259296	771.4505908545984	1331.8681318681317	
1.7494311447893066E12	3.0	1.296259296259296	771.4505908545984	1323.076923076923	
1.749431144808838E12	3.0	1.2958152958152958	771.7149220489978	1315.7509157509157	
1.7494311448283691E12	3.0	1.2958152958152958	771.7149220489978	1314.2857142857142	
1.7494311448479004E12	3.0	1.2958152958152958	771.7149220489978	1320.8791208791208	
1.7494311448674316E12	3.0	1.2953712953712955	771.9794344473008	1351.6483516483515	
1.749431144886963E12	3.0	1.2953712953712955	771.9794344473008	1416.8498168498168	
1.7494311449064941E12	3.0	1.2949272949272947	772.2441282358992	1506.227106227106	
1.7494311449260254E12	3.0	1.2949272949272947	772.2441282358992	1597.069597069597	
1.7494311449455566E12	3.0	1.2949272949272947	772.2441282358992	1657.8754578754579	
1.749431144965088E12	3.0	1.2949272949272947	772.2441282358992	1680.5860805860805	
1.7494311449846191E12	3.0	1.2949272949272947	772.2441282358992	1676.1904761904761	
1.7494311450041504E12	3.0	1.2944832944832945	772.5090036014406	1654.9450549450548	
1.7494311450236816E12	3.0	1.2944832944832945	772.5090036014406	1616.8498168498168	
1.749431145043213E12	3.0	1.2944832944832945	772.5090036014406	1581.6849816849815	
1.7494311450627441E12	3.0	1.2940392940392942	772.7740607308286	1542.8571428571427	
1.7494311450822754E12	3.0	1.2940392940392942	772.7740607308286	1498.168498168498	
1.7494311451018066E12	3.0	1.2935952935952937	773.0392998112236	1445.4212454212454	
1.749431145121338E12	3.0	1.2931512931512932	773.304721030043	1414.6520146520145	
1.7494311451408691E12	3.0	1.2935952935952937	773.0392998112236	1413.9194139194137	
1.7494311451604004E12	3.0	1.2935952935952937	773.0392998112236	1428.5714285714284	
1.7494311451799316E12	3.0	1.2931512931512932	773.304721030043	1442.4908424908424	
1.749431145199463E12	3.0	1.2935952935952937	773.0392998112236	1457.8754578754579	
1.7494311452189941E12	3.0	1.2931512931512932	773.304721030043	1474.7252747252746	
1.7494311452385254E12	3.0	1.2931512931512932	773.304721030043	1482.7838827838827	
1.7494311452580566E12	3.0	1.2931512931512932	773.304721030043	1482.7838827838827	
1.749431145277588E12	3.0	1.292707292707293	773.5703245749613	1473.260073260073	
1.7494311452971191E12	3.0	1.2931512931512932	773.304721030043	1460.8058608058607	
1.7494311453166504E12	3.0	1.292707292707293	773.5703245749613	1438.8278388278388	
1.7494311453361816E12	3.0	1.292707292707293	773.5703245749613	1415.3846153846152	
1.749431145355713E12	3.0	1.292707292707293	773.5703245749613	1403.6630036630036	
1.7494311453752441E12	3.0	1.292707292707293	773.5703245749613	1401.4652014652013	
1.7494311453947754E12	3.0	1.2922632922632922	773.8361106339117	1406.5934065934066	
1.7494311454143066E12	3.0	1.2922632922632922	773.8361106339117	1408.058608058608	
1.749431145433838E12	3.0	1.292707292707293	773.5703245749613	1406.5934065934066	
1.7494311454533691E12	3.0	1.292707292707293	773.5703245749613	1407.3260073260071	
1.7494311454729004E12	3.0	1.292707292707293	773.5703245749613	1400.7326007326005	
1.7494311454924316E12	3.0	1.2922632922632922	773.8361106339117	1389.7435897435896	
1.749431145511963E12	3.0	1.292707292707293	773.5703245749613	1380.2197802197802	
1.7494311455314941E12	3.0	1.292707292707293	773.5703245749613	1370.6959706959706	
1.7494311455510254E12	3.0	1.292707292707293	773.5703245749613	1361.904761904762	
1.7494311455705566E12	3.0	1.292707292707293	773.5703245749613	1354.5787545787546	
1.749431145590088E12	3.0	1.2931512931512932	773.304721030043	1354.5787545787546	
1.7494311456096191E12	3.0	1.2931512931512932	773.304721030043	1378.021978021978	
1.7494311456291504E12	3.0	1.2935952935952937	773.0392998112236	1441.0256410256409	
1.7494311456486816E12	3.0	1.2935952935952937	773.0392998112236	1518.6813186813185	
1.749431145668213E12	3.0	1.2940392940392942	772.7740607308286	1579.4871794871794	
1.7494311456877441E12	3.0	1.2944832944832945	772.5090036014406	1630.03663003663	
1.7494311457072754E12	3.0	1.2944832944832945	772.5090036014406	1661.5384615384614	
1.7494311457268066E12	3.0	1.2944832944832945	772.5090036014406	1656.4102564102564	
1.749431145746338E12	3.0	1.2949272949272947	772.2441282358992	1634.4322344322343	
1.7494311457658691E12	3.0	1.2958152958152958	771.7149220489978	1600.0	
1.7494311457854004E12	3.0	1.2958152958152958	771.7149220489978	1546.5201465201465	
1.7494311458049316E12	3.0	1.296259296259296	771.4505908545984	1488.6446886446886	
1.749431145824463E12	3.0	1.2967032967032968	771.1864406779662	1439.5604395604394	
1.7494311458439941E12	3.0	1.2975912975912975	770.6586826347306	1390.4761904761904	
1.7494311458635254E12	3.0	1.298035298035298	770.3950743971268	1351.6483516483515	
1.7494311458830566E12	3.0	1.2984792984792985	770.1316464352881	1334.065934065934	
1.749431145902588E12	3.0	1.2989232989232988	769.868398564348	1337.7289377289376	
1.7494311459221191E12	3.0	1.2993672993672993	769.6053305996925	1346.5201465201465	
1.7494311459416504E12	3.0	1.3002553002553001	769.0797336520403	1361.904761904762	
1.7494311459611816E12	3.0	1.3006993006993006	768.8172043010753	1380.2197802197802	
1.749431145980713E12	3.0	1.3011433011433011	768.5548541204573	1385.3479853479853	
1.7494311460002441E12	3.0	1.3020313020313021	768.0306905370844	1380.952380952381	
1.7494311460197754E12	3.0	1.302919302919303	767.5072414380644	1370.6959706959706	
1.7494311460393066E12	3.0	1.3033633033633034	767.2457843638222	1359.7069597069597	
1.749431146058838E12	3.0	1.304251304251304	766.7234042553192	1348.7179487179487	
1.7494311460783691E12	3.0	1.3051393051393052	766.2017349889437	1331.135531135531	
1.7494311460979004E12	3.0	1.306027306027306	765.6807751147375	1306.9597069597069	
1.7494311461174316E12	3.0	1.3069153069153068	765.1605231866826	1280.5860805860805	
1.749431146136963E12	3.0	1.3073593073593073	764.9006622516557	1263.003663003663	
1.7494311461564941E12	3.0	1.308247308247308	764.3814695401325	1249.8168498168498	
1.7494311461760254E12	3.0	1.309135309135309	763.8629811768697	1246.153846153846	
1.7494311461955566E12	3.0	1.3095793095793093	763.6040006780811	1241.7582417582416	
1.749431146215088E12	3.0	1.3104673104673104	763.0865661528037	1237.3626373626373	
1.7494311462346191E12	3.0	1.3117993117993116	762.3117278727366	1238.8278388278388	
1.7494311462541504E12	3.0	1.3122433122433121	762.0537980037219	1244.6886446886447	
1.7494311462736816E12	3.0	1.3126873126873129	761.7960426179604	1242.4908424908424	
1.749431146293213E12	3.0	1.3135753135753134	761.2810545884739	1232.2344322344322	
1.7494311463127441E12	3.0	1.314019314019314	761.0238215914851	1230.03663003663	
1.7494311463322754E12	3.0	1.3149073149073147	760.5098767516462	1246.153846153846	
1.7494311463518066E12	3.0	1.3157953157953157	759.9966256116079	1276.923076923077	
1.749431146371338E12	3.0	1.316239316239316	759.7402597402598	1320.14652014652	
1.7494311463908691E12	3.0	1.3171273171273172	759.2280465194674	1361.904761904762	
1.7494311464104004E12	3.0	1.318015318015318	758.7165234967156	1391.9413919413919	
1.7494311464299316E12	3.0	1.3184593184593183	758.4610203738004	1406.5934065934066	
1.749431146449463E12	3.0	1.3193473193473193	757.9505300353358	1406.5934065934066	
1.7494311464689941E12	3.0	1.32023532023532	757.4407264166807	1377.2893772893772	
1.7494311464885254E12	3.0	1.321123321123321	756.9316081330869	1337.7289377289376	
1.7494311465080566E12	3.0	1.3215673215673214	756.6773055602218	1305.4945054945053	
1.749431146527588E12	3.0	1.3220113220113219	756.4231738035265	1265.9340659340658	
1.7494311465471191E12	3.0	1.3215673215673214	756.6773055602218	1237.3626373626373	
1.7494311465666504E12	3.0	1.3228993228993227	755.9154220506797	1213.1868131868132	
1.7494311465861816E12	3.0	1.3233433233433232	755.6618017111224	1191.2087912087911	
1.749431146605713E12	3.0	1.3237873237873237	755.4083515009224	1175.0915750915751	
1.7494311466252441E12	3.0	1.3242313242313242	755.1550712489523	1167.032967032967	
1.7494311466447754E12	3.0	1.3246753246753247	754.9019607843138	1178.021978021978	
1.7494311466643066E12	3.0	1.325119325119325	754.6490199363378	1200.7326007326008	
1.749431146683838E12	3.0	1.3255633255633252	754.396248534584	1205.8608058608058	
1.7494311467033691E12	3.0	1.326007326007326	754.1436464088398	1213.1868131868132	
1.7494311467229004E12	3.0	1.3264513264513267	753.8912133891213	1214.6520146520145	
1.7494311467424316E12	3.0	1.326895326895327	753.6389493056716	1200.0	
1.749431146761963E12	3.0	1.3273393273393275	753.3868539889613	1164.8351648351647	
1.7494311467814941E12	3.0	1.3273393273393275	753.3868539889613	1139.194139194139	
1.7494311468010254E12	3.0	1.327783327783328	753.1349272696873	1143.5897435897434	
1.7494311468205566E12	3.0	1.3282273282273283	752.8831689787731	1158.2417582417581	
1.749431146840088E12	3.0	1.328671328671329	752.6315789473683	1180.952380952381	
1.7494311468596191E12	3.0	1.3291153291153293	752.3801570068481	1197.8021978021977	
1.7494311468791504E12	3.0	1.3300033300033303	751.8778167250875	1208.058608058608	
1.7494311468986816E12	3.0	1.3304473304473305	751.6268980477223	1216.8498168498168	
1.749431146918213E12	3.0	1.3313353313353316	751.1255627813906	1223.4432234432234	
1.7494311469377441E12	3.0	1.3317793317793318	750.8751458576429	1222.7106227106226	
1.7494311469572754E12	3.0	1.3326673326673328	750.374812593703	1220.5128205128203	
1.7494311469768066E12	3.0	1.3335553335553336	749.8751456633927	1206.5934065934066	
1.749431146996338E12	3.0	1.3344433344433346	749.3761437364831	1204.3956043956043	
1.7494311470158691E12	3.0	1.334887334887335	749.126891734575	1211.7216117216117	
1.7494311470354004E12	3.0	1.3353313353313354	748.8778054862843	1221.245421245421	
1.7494311470549316E12	3.0	1.335775335775336	748.6288848263254	1234.4322344322343	
1.749431147074463E12	3.0	1.3362193362193362	748.3801295896328	1270.3296703296703	
1.7494311470939941E12	3.0	1.336663336663337	748.1315396113602	1334.7985347985348	
1.7494311471135254E12	3.0	1.3371073371073372	747.8831147268802	1412.4542124542124	
1.7494311471330566E12	3.0	1.3375513375513377	747.6348547717841	1482.051282051282	
1.749431147152588E12	3.0	1.3379953379953382	747.3867595818815	1511.3553113553112	
1.7494311471721191E12	3.0	1.3379953379953382	747.3867595818815	1502.5641025641025	
1.7494311471916504E12	3.0	1.3384393384393385	747.1388289931995	1475.4578754578754	
1.7494311472111816E12	3.0	1.3388833388833388	746.8910628419831	1428.5714285714284	
1.749431147230713E12	3.0	1.3393273393273395	746.6434609646941	1386.8131868131868	
1.7494311472502441E12	3.0	1.3397713397713398	746.3960231980116	1365.5677655677655	
1.7494311472697754E12	3.0	1.3397713397713398	746.3960231980116	1343.5897435897434	
1.7494311472893066E12	3.0	1.3397713397713398	746.3960231980116	1323.8095238095236	
1.749431147308838E12	3.0	1.3402153402153403	746.1487493788305	1302.5641025641025	
1.7494311473283691E12	3.0	1.340659340659341	745.9016393442622	1284.2490842490843	
1.7494311473479004E12	3.0	1.340659340659341	745.9016393442622	1290.10989010989	
1.7494311473674316E12	3.0	1.340659340659341	745.9016393442622	1313.5531135531135	
1.749431147386963E12	3.0	1.341103341103341	745.6546929316338	1334.7985347985348	
1.7494311474064941E12	3.0	1.340659340659341	745.9016393442622	1340.6593406593406	
1.7494311474260254E12	3.0	1.341103341103341	745.6546929316338	1349.4505494505493	
1.7494311474455566E12	3.0	1.341103341103341	745.6546929316338	1339.9267399267399	
1.749431147465088E12	3.0	1.341103341103341	745.6546929316338	1322.3443223443223	
1.7494311474846191E12	3.0	1.341103341103341	745.6546929316338	1309.89010989011	
1.7494311475041504E12	3.0	1.341103341103341	745.6546929316338	1300.3663003663003	
1.7494311475236816E12	3.0	1.341103341103341	745.6546929316338	1303.2967032967033	
1.749431147543213E12	3.0	1.341103341103341	745.6546929316338	1304.0293040293038	
1.7494311475627441E12	3.0	1.341103341103341	745.6546929316338	1306.9597069597069	
1.7494311475822754E12	3.0	1.341103341103341	745.6546929316338	1312.8205128205127	
1.7494311476018066E12	3.0	1.341103341103341	745.6546929316338	1315.7509157509157	
1.749431147621338E12	3.0	1.341103341103341	745.6546929316338	1295.970695970696	
1.7494311476408691E12	3.0	1.341103341103341	745.6546929316338	1270.3296703296703	
1.7494311476604004E12	3.0	1.341103341103341	745.6546929316338	1273.260073260073	
1.7494311476799316E12	3.0	1.341103341103341	745.6546929316338	1284.2490842490843	
1.749431147699463E12	3.0	1.341103341103341	745.6546929316338	1306.9597069597069	
1.7494311477189941E12	3.0	1.341103341103341	745.6546929316338	1326.7399267399267	
1.7494311477385254E12	3.0	1.341103341103341	745.6546929316338	1334.065934065934	
1.7494311477580566E12	3.0	1.341103341103341	745.6546929316338	1335.5311355311355	
1.749431147777588E12	3.0	1.341103341103341	745.6546929316338	1336.263736263736	
1.7494311477971191E12	3.0	1.341103341103341	745.6546929316338	1343.5897435897434	
1.7494311478166504E12	3.0	1.340659340659341	745.9016393442622	1375.091575091575	
1.7494311478361816E12	3.0	1.340659340659341	745.9016393442622	1424.9084249084249	
1.749431147855713E12	3.0	1.340659340659341	745.9016393442622	1496.7032967032967	
1.7494311478752441E12	3.0	1.340659340659341	745.9016393442622	1561.1721611721612	
1.7494311478947754E12	3.0	1.340659340659341	745.9016393442622	1589.7435897435896	
1.7494311479143066E12	3.0	1.3402153402153403	746.1487493788305	1591.9413919413919	
1.749431147933838E12	3.0	1.3402153402153403	746.1487493788305	1567.032967032967	
1.7494311479533691E12	3.0	1.3397713397713398	746.3960231980116	1529.6703296703295	
1.7494311479729004E12	3.0	1.3388833388833388	746.8910628419831	1487.9120879120878	
1.7494311479924316E12	3.0	1.3393273393273395	746.6434609646941	1448.3516483516482	
1.749431148011963E12	3.0	1.3393273393273395	746.6434609646941	1416.8498168498168	
1.7494311480314941E12	3.0	1.3393273393273395	746.6434609646941	1391.2087912087911	
1.7494311480510254E12	3.0	1.3388833388833388	746.8910628419831	1367.032967032967	
1.7494311480705566E12	3.0	1.3388833388833388	746.8910628419831	1347.985347985348	
1.749431148090088E12	3.0	1.3384393384393385	747.1388289931995	1342.1245421245421	
1.7494311481096191E12	3.0	1.3384393384393385	747.1388289931995	1346.5201465201465	
1.7494311481291504E12	3.0	1.3379953379953382	747.3867595818815	1367.032967032967	
1.7494311481486816E12	3.0	1.3379953379953382	747.3867595818815	1397.8021978021977	
1.749431148168213E12	3.0	1.3379953379953382	747.3867595818815	1419.7802197802198	
1.7494311481877441E12	3.0	1.3375513375513377	747.6348547717841	1425.6410256410256	
1.7494311482072754E12	3.0	1.3371073371073372	747.8831147268802	1415.3846153846152	
1.7494311482268066E12	3.0	1.3371073371073372	747.8831147268802	1396.3369963369962	
1.749431148246338E12	3.0	1.3371073371073372	747.8831147268802	1379.4871794871794	
1.7494311482658691E12	3.0	1.3371073371073372	747.8831147268802	1364.8351648351647	
1.7494311482854004E12	3.0	1.336663336663337	748.1315396113602	1354.5787545787546	
1.7494311483049316E12	3.0	1.336663336663337	748.1315396113602	1344.3223443223442	
1.749431148324463E12	3.0	1.3362193362193362	748.3801295896328	1345.054945054945	
1.7494311483439941E12	3.0	1.3362193362193362	748.3801295896328	1348.7179487179487	
1.7494311483635254E12	3.0	1.335775335775336	748.6288848263254	1354.5787545787546	
1.7494311483830566E12	3.0	1.335775335775336	748.6288848263254	1361.1721611721612	
1.749431148402588E12	3.0	1.3353313353313354	748.8778054862843	1358.974358974359	
1.7494311484221191E12	3.0	1.334887334887335	749.126891734575	1354.5787545787546	
1.7494311484416504E12	3.0	1.3344433344433346	749.3761437364831	1340.6593406593406	
1.7494311484611816E12	3.0	1.3344433344433346	749.3761437364831	1331.135531135531	
1.749431148480713E12	3.0	1.3339993339993341	749.6255616575137	1331.8681318681317	
1.7494311485002441E12	3.0	1.3335553335553336	749.8751456633927	1336.263736263736	
1.7494311485197754E12	3.0	1.3335553335553336	749.8751456633927	1339.9267399267399	
1.7494311485393066E12	3.0	1.3331113331113331	750.1248959200666	1346.5201465201465	
1.749431148558838E12	3.0	1.3326673326673328	750.374812593703	1373.6263736263736	
1.7494311485783691E12	3.0	1.3326673326673328	750.374812593703	1430.03663003663	
1.7494311485979004E12	3.0	1.3322233322233323	750.6248958506915	1506.9597069597069	
1.7494311486174316E12	3.0	1.3322233322233323	750.6248958506915	1583.8827838827838	
1.749431148636963E12	3.0	1.3317793317793318	750.8751458576429	1634.4322344322343	
1.7494311486564941E12	3.0	1.3317793317793318	750.8751458576429	1646.8864468864467	
1.7494311486760254E12	3.0	1.3313353313353316	751.1255627813906	1620.5128205128203	
1.7494311486955566E12	3.0	1.3308913308913308	751.3761467889908	1587.5457875457873	
1.749431148715088E12	3.0	1.3308913308913308	751.3761467889908	1547.2527472527472	
1.7494311487346191E12	3.0	1.3304473304473305	751.6268980477223	1515.018315018315	
1.7494311487541504E12	3.0	1.3300033300033303	751.8778167250875	1476.923076923077	
1.7494311487736816E12	3.0	1.3295593295593295	752.1289029888128	1424.9084249084249	
1.749431148793213E12	3.0	1.3295593295593295	752.1289029888128	1377.2893772893772	
1.7494311488127441E12	3.0	1.3291153291153293	752.3801570068481	1350.9157509157508	
1.7494311488322754E12	3.0	1.328671328671329	752.6315789473683	1347.2527472527472	
1.7494311488518066E12	3.0	1.328671328671329	752.6315789473683	1364.8351648351647	
1.749431148871338E12	3.0	1.3282273282273283	752.8831689787731	1395.6043956043954	
1.7494311488908691E12	3.0	1.327783327783328	753.1349272696873	1421.245421245421	
1.7494311489104004E12	3.0	1.327783327783328	753.1349272696873	1435.8974358974358	
1.7494311489299316E12	3.0	1.3273393273393275	753.3868539889613	1438.8278388278388	
1.749431148949463E12	3.0	1.3273393273393275	753.3868539889613	1427.106227106227	
1.7494311489689941E12	3.0	1.326895326895327	753.6389493056716	1410.989010989011	
1.7494311489885254E12	3.0	1.3264513264513267	753.8912133891213	1388.278388278388	
1.7494311490080566E12	3.0	1.3264513264513267	753.8912133891213	1367.7655677655678	
1.749431149027588E12	3.0	1.326007326007326	754.1436464088398	1356.7765567765566	
1.7494311490471191E12	3.0	1.3255633255633252	754.396248534584	1361.904761904762	
1.7494311490666504E12	3.0	1.3255633255633252	754.396248534584	1372.8937728937728	
1.7494311490861816E12	3.0	1.3255633255633252	754.396248534584	1367.032967032967	
1.749431149105713E12	3.0	1.3246753246753247	754.9019607843138	1350.18315018315	
1.7494311491252441E12	3.0	1.3246753246753247	754.9019607843138	1344.3223443223442	
1.7494311491447754E12	3.0	1.3242313242313242	755.1550712489523	1346.5201465201465	
1.7494311491643066E12	3.0	1.3242313242313242	755.1550712489523	1345.7875457875457	
1.749431149183838E12	3.0	1.3242313242313242	755.1550712489523	1341.3919413919414	
1.7494311492033691E12	3.0	1.3237873237873237	755.4083515009224	1348.7179487179487	
1.7494311492229004E12	3.0	1.3228993228993227	755.9154220506797	1353.113553113553	
1.7494311492424316E12	3.0	1.3228993228993227	755.9154220506797	1344.3223443223442	
1.749431149261963E12	3.0	1.3228993228993227	755.9154220506797	1333.3333333333333	
1.7494311492814941E12	3.0	1.3228993228993227	755.9154220506797	1328.937728937729	
1.7494311493010254E12	3.0	1.3224553224553224	756.1692126909519	1332.6007326007325	
1.7494311493205566E12	3.0	1.3220113220113219	756.4231738035265	1360.4395604395604	
1.749431149340088E12	3.0	1.3220113220113219	756.4231738035265	1421.245421245421	
1.7494311493596191E12	3.0	1.3220113220113219	756.4231738035265	1498.9010989010987	
1.7494311493791504E12	3.0	1.3215673215673214	756.6773055602218	1564.8351648351647	
1.7494311493986816E12	3.0	1.3206793206793208	757.1860816944024	1601.4652014652013	
1.749431149418213E12	3.0	1.321123321123321	756.9316081330869	1606.5934065934066	
1.7494311494377441E12	3.0	1.321123321123321	756.9316081330869	1589.0109890109889	
1.7494311494572754E12	3.0	1.3206793206793208	757.1860816944024	1558.974358974359	
1.7494311494768066E12	3.0	1.32023532023532	757.4407264166807	1518.6813186813185	
1.749431149496338E12	3.0	1.32023532023532	757.4407264166807	1476.1904761904761	
1.7494311495158691E12	3.0	1.32023532023532	757.4407264166807	1433.6996336996335	
1.7494311495354004E12	3.0	1.32023532023532	757.4407264166807	1396.3369963369962	
1.7494311495549316E12	3.0	1.3197913197913198	757.6955424726661	1368.4981684981683	
1.749431149574463E12	3.0	1.3193473193473193	757.9505300353358	1358.974358974359	
1.7494311495939941E12	3.0	1.3193473193473193	757.9505300353358	1361.1721611721612	
1.7494311496135254E12	3.0	1.3189033189033188	758.2056892778994	1382.4175824175823	
1.7494311496330566E12	3.0	1.3189033189033188	758.2056892778994	1413.9194139194137	
1.749431149652588E12	3.0	1.3189033189033188	758.2056892778994	1444.6886446886447	
1.7494311496721191E12	3.0	1.3184593184593183	758.4610203738004	1463.7362637362637	
1.7494311496916504E12	3.0	1.318015318015318	758.7165234967156	1454.9450549450548	
1.7494311497111816E12	3.0	1.318015318015318	758.7165234967156	1444.6886446886447	
1.749431149730713E12	3.0	1.318015318015318	758.7165234967156	1429.3040293040292	
1.7494311497502441E12	3.0	1.3175713175713175	758.9721988205561	1415.3846153846152	
1.7494311497697754E12	3.0	1.3175713175713175	758.9721988205561	1402.9304029304028	
1.7494311497893066E12	3.0	1.3175713175713175	758.9721988205561	1380.2197802197802	
1.749431149808838E12	3.0	1.3171273171273172	759.2280465194674	1378.021978021978	
1.7494311498283691E12	3.0	1.3171273171273172	759.2280465194674	1380.952380952381	
1.7494311498479004E12	3.0	1.3171273171273172	759.2280465194674	1386.080586080586	
1.7494311498674316E12	3.0	1.3166833166833167	759.4840667678301	1389.7435897435896	
1.749431149886963E12	3.0	1.316239316239316	759.7402597402598	1397.069597069597	
1.7494311499064941E12	3.0	1.316239316239316	759.7402597402598	1402.197802197802	
1.7494311499260254E12	3.0	1.316239316239316	759.7402597402598	1400.0	
1.7494311499455566E12	3.0	1.3157953157953157	759.9966256116079	1393.4065934065934	
1.749431149965088E12	3.0	1.3157953157953157	759.9966256116079	1392.6739926739926	
1.7494311499846191E12	3.0	1.3153513153513152	760.2531645569621	1389.7435897435896	
1.7494311500041504E12	3.0	1.3149073149073147	760.5098767516462	1386.8131868131868	
1.7494311500236816E12	3.0	1.3149073149073147	760.5098767516462	1404.3956043956043	
1.749431150043213E12	3.0	1.3144633144633144	760.7667623712211	1435.164835164835	
1.7494311500627441E12	3.0	1.3144633144633144	760.7667623712211	1489.3772893772893	
1.7494311500822754E12	3.0	1.3144633144633144	760.7667623712211	1579.4871794871794	
1.7494311501018066E12	3.0	1.314019314019314	761.0238215914851	1665.201465201465	
1.749431150121338E12	3.0	1.314019314019314	761.0238215914851	1713.5531135531135	
1.7494311501408691E12	3.0	1.3135753135753134	761.2810545884739	1719.4139194139193	
1.7494311501604004E12	3.0	1.3135753135753134	761.2810545884739	1697.4358974358972	
1.7494311501799316E12	3.0	1.3135753135753134	761.2810545884739	1661.5384615384614	
1.749431150199463E12	3.0	1.3131313131313131	761.5384615384615	1622.7106227106226	
1.7494311502189941E12	3.0	1.3131313131313131	761.5384615384615	1589.7435897435896	
1.7494311502385254E12	3.0	1.3126873126873129	761.7960426179604	1555.311355311355	
1.7494311502580566E12	3.0	1.3122433122433121	762.0537980037219	1513.5531135531135	
1.749431150277588E12	3.0	1.3122433122433121	762.0537980037219	1469.5970695970695	
1.7494311502971191E12	3.0	1.3122433122433121	762.0537980037219	1443.2234432234432	
1.7494311503166504E12	3.0	1.3117993117993116	762.3117278727366	1433.6996336996335	
1.7494311503361816E12	3.0	1.3117993117993116	762.3117278727366	1435.8974358974358	
1.749431150355713E12	3.0	1.3113553113553114	762.5698324022347	1443.2234432234432	
1.7494311503752441E12	3.0	1.3109113109113109	762.8281117696868	1456.4102564102564	
1.7494311503947754E12	3.0	1.3109113109113109	762.8281117696868	1463.7362637362637	
1.7494311504143066E12	3.0	1.3109113109113109	762.8281117696868	1460.07326007326	
1.749431150433838E12	3.0	1.3104673104673104	763.0865661528037	1446.153846153846	
1.7494311504533691E12	3.0	1.31002331002331	763.3451957295374	1427.106227106227	
1.7494311504729004E12	3.0	1.3095793095793093	763.6040006780811	1411.7216117216117	
1.7494311504924316E12	3.0	1.31002331002331	763.3451957295374	1394.139194139194	
1.749431150511963E12	3.0	1.3095793095793093	763.6040006780811	1375.091575091575	
1.7494311505314941E12	3.0	1.3095793095793093	763.6040006780811	1367.032967032967	
1.7494311505510254E12	3.0	1.309135309135309	763.8629811768697	1360.4395604395604	
1.7494311505705566E12	3.0	1.309135309135309	763.8629811768697	1352.3809523809523	
1.749431150590088E12	3.0	1.3086913086913088	764.1221374045801	1344.3223443223442	
1.7494311506096191E12	3.0	1.3086913086913088	764.1221374045801	1343.5897435897434	
1.7494311506291504E12	3.0	1.3086913086913088	764.1221374045801	1343.5897435897434	
1.7494311506486816E12	3.0	1.308247308247308	764.3814695401325	1342.8571428571427	
1.749431150668213E12	3.0	1.308247308247308	764.3814695401325	1328.937728937729	
1.7494311506877441E12	3.0	1.3078033078033078	764.6409777626889	1309.89010989011	
1.7494311507072754E12	3.0	1.3078033078033078	764.6409777626889	1306.227106227106	
1.7494311507268066E12	3.0	1.3073593073593073	764.9006622516557	1312.087912087912	
1.749431150746338E12	3.0	1.3073593073593073	764.9006622516557	1317.9487179487178	
1.7494311507658691E12	3.0	1.3069153069153068	765.1605231866826	1331.135531135531	
1.7494311507854004E12	3.0	1.3069153069153068	765.1605231866826	1368.4981684981683	
1.7494311508049316E12	3.0	1.3064713064713065	765.4205607476636	1424.1758241758241	
1.749431150824463E12	3.0	1.3055833055833055	765.9411664682877	1487.9120879120878	
1.7494311508439941E12	3.0	1.306027306027306	765.6807751147375	1542.1245421245421	
1.7494311508635254E12	3.0	1.306027306027306	765.6807751147375	1572.161172161172	
1.7494311508830566E12	3.0	1.3055833055833055	765.9411664682877	1575.091575091575	
1.749431150902588E12	3.0	1.3055833055833055	765.9411664682877	1550.18315018315	
1.7494311509221191E12	3.0	1.3051393051393052	766.2017349889437	1508.4249084249084	
1.7494311509416504E12	3.0	1.3051393051393052	766.2017349889437	1462.2710622710622	
1.7494311509611816E12	3.0	1.3046953046953047	766.4624808575804	1417.5824175824175	
1.749431150980713E12	3.0	1.3046953046953047	766.4624808575804	1367.7655677655678	
1.7494311510002441E12	3.0	1.3046953046953047	766.4624808575804	1327.4725274725274	
1.7494311510197754E12	3.0	1.304251304251304	766.7234042553192	1295.2380952380952	
1.7494311510393066E12	3.0	1.303807303807304	766.984505363528	1268.8644688644688	
1.749431151058838E12	3.0	1.303807303807304	766.984505363528	1256.4102564102564	
1.7494311510783691E12	3.0	1.3033633033633034	767.2457843638222	1254.212454212454	
1.7494311510979004E12	3.0	1.3033633033633034	767.2457843638222	1263.7362637362637	
1.7494311511174316E12	3.0	1.302919302919303	767.5072414380644	1265.2014652014652	
1.749431151136963E12	3.0	1.302919302919303	767.5072414380644	1267.3992673992673	
1.7494311511564941E12	3.0	1.3024753024753024	767.7688767683654	1280.5860805860805	
1.7494311511760254E12	3.0	1.3020313020313021	768.0306905370844	1284.2490842490843	
1.7494311511955566E12	3.0	1.3020313020313021	768.0306905370844	1270.3296703296703	
1.749431151215088E12	3.0	1.3020313020313021	768.0306905370844	1249.084249084249	
1.7494311512346191E12	3.0	1.3015873015873014	768.2926829268293	1241.7582417582416	
1.7494311512541504E12	3.0	1.3015873015873014	768.2926829268293	1234.4322344322343	
1.7494311512736816E12	3.0	1.3011433011433011	768.5548541204573	1221.9780219780218	
1.749431151293213E12	3.0	1.3011433011433011	768.5548541204573	1206.5934065934066	
1.7494311513127441E12	3.0	1.3006993006993006	768.8172043010753	1204.3956043956043	
1.7494311513322754E12	3.0	1.3006993006993006	768.8172043010753	1206.5934065934066	
1.7494311513518066E12	3.0	1.3002553002553001	769.0797336520403	1207.3260073260074	
1.749431151371338E12	3.0	1.3002553002553001	769.0797336520403	1210.2564102564102	
1.7494311513908691E12	3.0	1.2998112998112998	769.3424423569599	1198.5347985347985	
1.7494311514104004E12	3.0	1.2993672993672993	769.6053305996925	1179.4871794871794	
1.7494311514299316E12	3.0	1.2993672993672993	769.6053305996925	1174.3589743589744	
1.749431151449463E12	3.0	1.2993672993672993	769.6053305996925	1184.6153846153845	
1.7494311514689941E12	3.0	1.2989232989232988	769.868398564348	1193.4065934065934	
1.7494311514885254E12	3.0	1.2989232989232988	769.868398564348	1194.8717948717947	
1.7494311515080566E12	3.0	1.2989232989232988	769.868398564348	1191.9413919413919	
1.749431151527588E12	3.0	1.2984792984792985	770.1316464352881	1207.3260073260074	
1.7494311515471191E12	3.0	1.2984792984792985	770.1316464352881	1248.3516483516482	
1.7494311515666504E12	3.0	1.298035298035298	770.3950743971268	1306.227106227106	
1.7494311515861816E12	3.0	1.298035298035298	770.3950743971268	1372.161172161172	
1.749431151605713E12	3.0	1.2975912975912975	770.6586826347306	1424.1758241758241	
1.7494311516252441E12	3.0	1.2975912975912975	770.6586826347306	1441.7582417582416	
1.7494311516447754E12	3.0	1.297147297147297	770.9224713332193	1420.5128205128203	
1.7494311516643066E12	3.0	1.297147297147297	770.9224713332193	1375.8241758241757	
1.749431151683838E12	3.0	1.297147297147297	770.9224713332193	1336.263736263736	
1.7494311517033691E12	3.0	1.2967032967032968	771.1864406779662	1298.9010989010987	
1.7494311517229004E12	3.0	1.2967032967032968	771.1864406779662	1265.2014652014652	
1.7494311517424316E12	3.0	1.296259296259296	771.4505908545984	1232.2344322344322	
1.749431151761963E12	3.0	1.296259296259296	771.4505908545984	1202.9304029304028	
1.7494311517814941E12	3.0	1.2958152958152958	771.7149220489978	1184.6153846153845	
1.7494311518010254E12	3.0	1.2958152958152958	771.7149220489978	1175.0915750915751	
1.7494311518205566E12	3.0	1.2953712953712955	771.9794344473008	1177.2893772893772	
1.749431151840088E12	3.0	1.2953712953712955	771.9794344473008	1190.4761904761904	
1.7494311518596191E12	3.0	1.2949272949272947	772.2441282358992	1222.7106227106226	
1.7494311518791504E12	3.0	1.2949272949272947	772.2441282358992	1250.5494505494505	
1.7494311518986816E12	3.0	1.2949272949272947	772.2441282358992	1254.9450549450548	
1.749431151918213E12	3.0	1.2949272949272947	772.2441282358992	1255.6776556776556	
1.7494311519377441E12	3.0	1.2944832944832945	772.5090036014406	1261.5384615384614	
1.7494311519572754E12	3.0	1.2944832944832945	772.5090036014406	1260.07326007326	
1.7494311519768066E12	3.0	1.2940392940392942	772.7740607308286	1247.6190476190475	
1.749431151996338E12	3.0	1.2940392940392942	772.7740607308286	1234.4322344322343	
1.7494311520158691E12	3.0	1.2940392940392942	772.7740607308286	1219.7802197802198	
1.7494311520354004E12	3.0	1.2940392940392942	772.7740607308286	1221.245421245421	
1.7494311520549316E12	3.0	1.2935952935952937	773.0392998112236	1234.4322344322343	
1.749431152074463E12	3.0	1.2935952935952937	773.0392998112236	1249.8168498168498	
1.7494311520939941E12	3.0	1.2935952935952937	773.0392998112236	1255.6776556776556	
1.7494311521135254E12	3.0	1.2935952935952937	773.0392998112236	1254.9450549450548	
1.7494311521330566E12	3.0	1.2940392940392942	772.7740607308286	1254.9450549450548	
1.749431152152588E12	3.0	1.2935952935952937	773.0392998112236	1249.8168498168498	
1.7494311521721191E12	3.0	1.2935952935952937	773.0392998112236	1244.6886446886447	
1.7494311521916504E12	3.0	1.2935952935952937	773.0392998112236	1244.6886446886447	
1.7494311522111816E12	3.0	1.2935952935952937	773.0392998112236	1242.4908424908424	
1.749431152230713E12	3.0	1.2935952935952937	773.0392998112236	1241.7582417582416	
1.7494311522502441E12	3.0	1.292707292707293	773.5703245749613	1251.2820512820513	
1.7494311522697754E12	3.0	1.2935952935952937	773.0392998112236	1274.7252747252746	
1.7494311522893066E12	3.0	1.2935952935952937	773.0392998112236	1317.9487179487178	
1.749431152308838E12	3.0	1.2935952935952937	773.0392998112236	1378.7545787545787	
1.7494311523283691E12	3.0	1.2935952935952937	773.0392998112236	1444.6886446886447	
1.7494311523479004E12	3.0	1.2935952935952937	773.0392998112236	1498.168498168498	
1.7494311523674316E12	3.0	1.2935952935952937	773.0392998112236	1522.3443223443223	
1.749431152386963E12	3.0	1.2935952935952937	773.0392998112236	1514.2857142857142	
1.7494311524064941E12	3.0	1.2935952935952937	773.0392998112236	1478.3882783882782	
1.7494311524260254E12	3.0	1.2935952935952937	773.0392998112236	1427.106227106227	
1.7494311524455566E12	3.0	1.2935952935952937	773.0392998112236	1383.150183150183	
1.749431152465088E12	3.0	1.2935952935952937	773.0392998112236	1348.7179487179487	
1.7494311524846191E12	3.0	1.2935952935952937	773.0392998112236	1321.6117216117216	
1.7494311525041504E12	3.0	1.2935952935952937	773.0392998112236	1297.4358974358975	
1.7494311525236816E12	3.0	1.2935952935952937	773.0392998112236	1283.5164835164835	
1.749431152543213E12	3.0	1.2935952935952937	773.0392998112236	1271.7948717948716	
1.7494311525627441E12	3.0	1.2935952935952937	773.0392998112236	1270.3296703296703	
1.7494311525822754E12	3.0	1.2931512931512932	773.304721030043	1281.3186813186812	
1.7494311526018066E12	3.0	1.2931512931512932	773.304721030043	1306.227106227106	
1.749431152621338E12	3.0	1.2931512931512932	773.304721030043	1327.4725274725274	
1.7494311526408691E12	3.0	1.2931512931512932	773.304721030043	1335.5311355311355	
1.7494311526604004E12	3.0	1.2931512931512932	773.304721030043	1321.6117216117216	
1.7494311526799316E12	3.0	1.2931512931512932	773.304721030043	1309.1575091575091	
1.749431152699463E12	3.0	1.2931512931512932	773.304721030043	1301.098901098901	
1.7494311527189941E12	3.0	1.2931512931512932	773.304721030043	1296.7032967032967	
1.7494311527385254E12	3.0	1.2931512931512932	773.304721030043	1287.179487179487	
1.7494311527580566E12	3.0	1.292707292707293	773.5703245749613	1277.6556776556777	
1.749431152777588E12	3.0	1.292707292707293	773.5703245749613	1271.7948717948716	
1.7494311527971191E12	3.0	1.292707292707293	773.5703245749613	1269.5970695970695	
1.7494311528166504E12	3.0	1.292707292707293	773.5703245749613	1266.6666666666665	
1.7494311528361816E12	3.0	1.292707292707293	773.5703245749613	1272.5274725274724	
1.749431152855713E12	3.0	1.2922632922632922	773.8361106339117	1279.8534798534797	
1.7494311528752441E12	3.0	1.292707292707293	773.5703245749613	1287.179487179487	
1.7494311528947754E12	3.0	1.2922632922632922	773.8361106339117	1288.6446886446886	
1.7494311529143066E12	3.0	1.2922632922632922	773.8361106339117	1286.4468864468863	
1.749431152933838E12	3.0	1.2922632922632922	773.8361106339117	1283.5164835164835	
1.7494311529533691E12	3.0	1.2922632922632922	773.8361106339117	1288.6446886446886	
1.7494311529729004E12	3.0	1.2922632922632922	773.8361106339117	1304.0293040293038	
1.7494311529924316E12	3.0	1.2922632922632922	773.8361106339117	1339.9267399267399	
1.749431153011963E12	3.0	1.291819291819292	774.1020793950851	1389.7435897435896	
1.7494311530314941E12	3.0	1.291819291819292	774.1020793950851	1449.084249084249	
1.7494311530510254E12	3.0	1.291819291819292	774.1020793950851	1506.9597069597069	
1.7494311530705566E12	3.0	1.291819291819292	774.1020793950851	1542.8571428571427	
1.749431153090088E12	3.0	1.291819291819292	774.1020793950851	1550.18315018315	
1.7494311531096191E12	3.0	1.2913752913752914	774.3682310469314	1527.4725274725274	
1.7494311531291504E12	3.0	1.2913752913752914	774.3682310469314	1486.4468864468863	
1.7494311531486816E12	3.0	1.2913752913752914	774.3682310469314	1443.956043956044	
1.749431153168213E12	3.0	1.2913752913752914	774.3682310469314	1405.128205128205	
1.7494311531877441E12	3.0	1.2913752913752914	774.3682310469314	1372.161172161172	
1.7494311532072754E12	3.0	1.2909312909312909	774.63456577816	1342.1245421245421	
1.7494311532268066E12	3.0	1.2909312909312909	774.63456577816	1308.4249084249084	
1.749431153246338E12	3.0	1.2909312909312909	774.63456577816	1293.040293040293	
1.7494311532658691E12	3.0	1.2909312909312909	774.63456577816	1297.4358974358975	
1.7494311532854004E12	3.0	1.2909312909312909	774.63456577816	1312.087912087912	
1.7494311533049316E12	3.0	1.2904872904872904	774.9010837777396	1325.2747252747251	
1.749431153324463E12	3.0	1.2904872904872904	774.9010837777396	1342.1245421245421	
1.7494311533439941E12	3.0	1.2904872904872904	774.9010837777396	1350.18315018315	
1.7494311533635254E12	3.0	1.2904872904872904	774.9010837777396	1350.9157509157508	
1.7494311533830566E12	3.0	1.2904872904872904	774.9010837777396	1346.5201465201465	
1.749431153402588E12	3.0	1.2904872904872904	774.9010837777396	1334.065934065934	
1.7494311534221191E12	3.0	1.29004329004329	775.1677852348994	1323.8095238095236	
1.7494311534416504E12	3.0	1.29004329004329	775.1677852348994	1322.3443223443223	
1.7494311534611816E12	3.0	1.29004329004329	775.1677852348994	1323.8095238095236	
1.749431153480713E12	3.0	1.29004329004329	775.1677852348994	1323.8095238095236	
1.7494311535002441E12	3.0	1.2895992895992896	775.434670339129	1320.14652014652	
1.7494311535197754E12	3.0	1.2895992895992896	775.434670339129	1317.9487179487178	
1.7494311535393066E12	3.0	1.289155289155289	775.7017392801791	1317.9487179487178	
1.749431153558838E12	3.0	1.289155289155289	775.7017392801791	1315.7509157509157	
1.7494311535783691E12	3.0	1.289155289155289	775.7017392801791	1311.3553113553112	
1.7494311535979004E12	3.0	1.289155289155289	775.7017392801791	1311.3553113553112	
1.7494311536174316E12	3.0	1.2887112887112888	775.968992248062	1317.9487179487178	
1.749431153636963E12	3.0	1.2887112887112888	775.968992248062	1322.3443223443223	
1.7494311536564941E12	3.0	1.2882672882672883	776.2364294330519	1323.8095238095236	
1.7494311536760254E12	3.0	1.2873792873792875	776.7718572167615	1336.9963369963368	
1.7494311536955566E12	3.0	1.2878232878232878	776.5040510256853	1361.1721611721612	
1.749431153715088E12	3.0	1.2882672882672883	776.2364294330519	1405.128205128205	
1.7494311537346191E12	3.0	1.2882672882672883	776.2364294330519	1463.7362637362637	
1.7494311537541504E12	3.0	1.2878232878232878	776.5040510256853	1520.8791208791208	
1.7494311537736816E12	3.0	1.2873792873792875	776.7718572167615	1567.7655677655678	
1.749431153793213E12	3.0	1.2873792873792875	776.7718572167615	1606.5934065934066	
1.7494311538127441E12	3.0	1.2873792873792875	776.7718572167615	1620.5128205128203	
1.7494311538322754E12	3.0	1.2873792873792875	776.7718572167615	1605.128205128205	
1.7494311538518066E12	3.0	1.286935286935287	777.0398481973434	1564.8351648351647	
1.749431153871338E12	3.0	1.286935286935287	777.0398481973434	1517.216117216117	
1.7494311538908691E12	3.0	1.2864912864912865	777.3080241587576	1474.7252747252746	
1.7494311539104004E12	3.0	1.2864912864912865	777.3080241587576	1441.0256410256409	
1.7494311539299316E12	3.0	1.2864912864912865	777.3080241587576	1401.4652014652013	
1.749431153949463E12	3.0	1.2864912864912865	777.3080241587576	1361.1721611721612	
1.7494311539689941E12	3.0	1.2860472860472862	777.5763852925945	1342.1245421245421	
1.7494311539885254E12	3.0	1.2860472860472862	777.5763852925945	1353.113553113553	
1.7494311540080566E12	3.0	1.2860472860472862	777.5763852925945	1385.3479853479853	
1.749431154027588E12	3.0	1.2856032856032857	777.8449317907097	1414.6520146520145	
1.7494311540471191E12	3.0	1.2856032856032857	777.8449317907097	1432.2344322344322	
1.7494311540666504E12	3.0	1.2856032856032857	777.8449317907097	1445.4212454212454	
1.7494311540861816E12	3.0	1.2851592851592852	778.1136638452236	1449.084249084249	
1.749431154105713E12	3.0	1.2847152847152847	778.3825816485225	1446.153846153846	
1.7494311541252441E12	3.0	1.2847152847152847	778.3825816485225	1435.8974358974358	
1.7494311541447754E12	3.0	1.2842712842712842	778.6516853932584	1430.03663003663	
1.7494311541643066E12	3.0	1.2842712842712842	778.6516853932584	1428.5714285714284	
1.749431154183838E12	3.0	1.2842712842712842	778.6516853932584	1427.106227106227	
1.7494311542033691E12	3.0	1.2842712842712842	778.6516853932584	1427.8388278388277	
1.7494311542229004E12	3.0	1.2838272838272837	778.92097527235	1433.6996336996335	
1.7494311542424316E12	3.0	1.2838272838272837	778.92097527235	1443.2234432234432	
1.749431154261963E12	3.0	1.2838272838272837	778.92097527235	1447.6190476190475	
1.7494311542814941E12	3.0	1.2838272838272837	778.92097527235	1434.4322344322343	
1.7494311543010254E12	3.0	1.2833832833832834	779.1904514789828	1426.3736263736262	
1.7494311543205566E12	3.0	1.282939282939283	779.4601142066101	1429.3040293040292	
1.749431154340088E12	3.0	1.282939282939283	779.4601142066101	1424.9084249084249	
1.7494311543596191E12	3.0	1.2824952824952824	779.7299636489528	1425.6410256410256	
1.7494311543791504E12	3.0	1.2824952824952824	779.7299636489528	1429.3040293040292	
1.7494311543986816E12	3.0	1.2824952824952824	779.7299636489528	1426.3736263736262	
1.749431154418213E12	3.0	1.2824952824952824	779.7299636489528	1435.164835164835	
1.7494311544377441E12	3.0	1.2820512820512822	780.0	1464.4688644688645	
1.7494311544572754E12	3.0	1.2820512820512822	780.0	1538.4615384615383	
1.7494311544768066E12	3.0	1.2820512820512822	780.0	1634.4322344322343	
1.749431154496338E12	3.0	1.2816072816072814	780.2702234540101	1726.007326007326	
1.7494311545158691E12	3.0	1.2816072816072814	780.2702234540101	1806.5934065934064	
1.7494311545354004E12	3.0	1.2816072816072814	780.2702234540101	1854.212454212454	
1.7494311545549316E12	3.0	1.2811632811632812	780.5406342055103	1853.4798534798533	
1.749431154574463E12	3.0	1.2807192807192807	780.8112324492979	1827.106227106227	
1.7494311545939941E12	3.0	1.2807192807192807	780.8112324492979	1785.3479853479853	
1.7494311546135254E12	3.0	1.2807192807192807	780.8112324492979	1741.3919413919414	
1.7494311546330566E12	3.0	1.2807192807192807	780.8112324492979	1697.4358974358972	
1.749431154652588E12	3.0	1.2802752802752801	781.0820183804404	1638.095238095238	
1.7494311546721191E12	3.0	1.2802752802752801	781.0820183804404	1577.2893772893772	
1.7494311546916504E12	3.0	1.2798312798312799	781.3529921942758	1534.065934065934	
1.7494311547111816E12	3.0	1.2798312798312799	781.3529921942758	1521.6117216117216	
1.749431154730713E12	3.0	1.2793872793872794	781.6241540864133	1528.937728937729	
1.7494311547502441E12	3.0	1.2793872793872794	781.6241540864133	1540.6593406593406	
1.7494311547697754E12	3.0	1.2793872793872794	781.6241540864133	1551.6483516483515	
1.7494311547893066E12	3.0	1.2789432789432789	781.8955042527339	1556.7765567765566	
1.749431154808838E12	3.0	1.2789432789432789	781.8955042527339	1550.9157509157508	
1.7494311548283691E12	3.0	1.2789432789432789	781.8955042527339	1536.9963369963368	
1.7494311548479004E12	3.0	1.2789432789432789	781.8955042527339	1517.9487179487178	
1.7494311548674316E12	3.0	1.2784992784992786	782.1670428893905	1505.4945054945053	
1.749431154886963E12	3.0	1.2784992784992786	782.1670428893905	1499.6336996336995	
1.7494311549064941E12	3.0	1.278055278055278	782.4387701928088	1495.970695970696	
1.7494311549260254E12	3.0	1.278055278055278	782.4387701928088	1485.7142857142856	
1.7494311549455566E12	3.0	1.278055278055278	782.4387701928088	1470.3296703296703	
1.749431154965088E12	3.0	1.2776112776112776	782.7106863596872	1459.3406593406592	
1.7494311549846191E12	3.0	1.2771672771672773	782.982791586998	1449.8168498168498	
1.7494311550041504E12	3.0	1.2771672771672773	782.982791586998	1430.03663003663	
1.7494311550236816E12	3.0	1.2771672771672773	782.982791586998	1416.117216117216	
1.749431155043213E12	3.0	1.2771672771672773	782.982791586998	1412.4542124542124	
1.7494311550627441E12	3.0	1.2771672771672773	782.982791586998	1409.5238095238094	
1.7494311550822754E12	3.0	1.2771672771672773	782.982791586998	1403.6630036630036	
1.7494311551018066E12	3.0	1.275835275835276	783.8002436053592	1400.7326007326005	
1.749431155121338E12	3.0	1.2767232767232768	783.2550860719874	1403.6630036630036	
1.7494311551408691E12	3.0	1.2762792762792763	783.527570012176	1419.047619047619	
1.7494311551604004E12	3.0	1.2762792762792763	783.527570012176	1464.4688644688645	
1.7494311551799316E12	3.0	1.2762792762792763	783.527570012176	1531.8681318681317	
1.749431155199463E12	3.0	1.2762792762792763	783.527570012176	1609.5238095238094	
1.7494311552189941E12	3.0	1.2762792762792763	783.527570012176	1658.6080586080584	
1.7494311552385254E12	3.0	1.275835275835276	783.8002436053592	1672.5274725274724	
1.7494311552580566E12	3.0	1.2753912753912753	784.0731070496083	1648.3516483516482	
1.749431155277588E12	3.0	1.2753912753912753	784.0731070496083	1608.7912087912086	
1.7494311552971191E12	3.0	1.2753912753912753	784.0731070496083	1568.4981684981683	
1.7494311553166504E12	3.0	1.2753912753912753	784.0731070496083	1530.4029304029302	
1.7494311553361816E12	3.0	1.274947274947275	784.34616054327	1483.5164835164835	
1.749431155355713E12	3.0	1.274947274947275	784.34616054327	1431.5018315018315	
1.7494311553752441E12	3.0	1.274947274947275	784.34616054327	1386.8131868131868	
1.7494311553947754E12	3.0	1.2745032745032745	784.6194042849678	1356.7765567765566	
1.7494311554143066E12	3.0	1.2745032745032745	784.6194042849678	1347.2527472527472	
1.749431155433838E12	3.0	1.2745032745032745	784.6194042849678	1355.3113553113553	
1.7494311554533691E12	3.0	1.2745032745032745	784.6194042849678	1367.032967032967	
1.7494311554729004E12	3.0	1.274059274059274	784.8928384736016	1372.8937728937728	
1.7494311554924316E12	3.0	1.274059274059274	784.8928384736016	1377.2893772893772	
1.749431155511963E12	3.0	1.274059274059274	784.8928384736016	1378.7545787545787	
1.7494311555314941E12	3.0	1.2736152736152735	785.1664633083493	1372.161172161172	
1.7494311555510254E12	3.0	1.2736152736152735	785.1664633083493	1347.985347985348	
1.7494311555705566E12	3.0	1.2736152736152735	785.1664633083493	1326.7399267399267	
1.749431155590088E12	3.0	1.2731712731712732	785.440278988666	1299.6336996336995	
1.7494311556096191E12	3.0	1.2731712731712732	785.440278988666	1273.9926739926739	
1.7494311556291504E12	3.0	1.2731712731712732	785.440278988666	1257.142857142857	
1.7494311556486816E12	3.0	1.2731712731712732	785.440278988666	1257.142857142857	
1.749431155668213E12	3.0	1.2727272727272727	785.7142857142857	1279.120879120879	
1.7494311556877441E12	3.0	1.2722832722832724	785.9884836852207	1298.168498168498	
1.7494311557072754E12	3.0	1.2722832722832724	785.9884836852207	1299.6336996336995	
1.7494311557268066E12	3.0	1.2722832722832724	785.9884836852207	1295.2380952380952	
1.749431155746338E12	3.0	1.2722832722832724	785.9884836852207	1284.9816849816848	
1.7494311557658691E12	3.0	1.2722832722832724	785.9884836852207	1277.6556776556777	
1.7494311557854004E12	3.0	1.271839271839272	786.2628731017629	1271.062271062271	
1.7494311558049316E12	3.0	1.271839271839272	786.2628731017629	1265.9340659340658	
1.749431155824463E12	3.0	1.2713952713952714	786.537454164484	1261.5384615384614	
1.7494311558439941E12	3.0	1.2713952713952714	786.537454164484	1283.5164835164835	
1.7494311558635254E12	3.0	1.2713952713952714	786.537454164484	1331.135531135531	
1.7494311558830566E12	3.0	1.2713952713952714	786.537454164484	1401.4652014652013	
1.749431155902588E12	3.0	1.270951270951271	786.8122270742358	1475.4578754578754	
1.7494311559221191E12	3.0	1.2705072705072706	787.0871920321509	1523.0769230769229	
1.7494311559416504E12	3.0	1.270951270951271	786.8122270742358	1540.6593406593406	
1.7494311559611816E12	3.0	1.270951270951271	786.8122270742358	1532.6007326007325	
1.749431155980713E12	3.0	1.270951270951271	786.8122270742358	1501.098901098901	
1.7494311560002441E12	3.0	1.2705072705072706	787.0871920321509	1444.6886446886447	
1.7494311560197754E12	3.0	1.2705072705072706	787.0871920321509	1387.5457875457876	
1.7494311560393066E12	3.0	1.27006327006327	787.3623492396434	1340.6593406593406	
1.749431156058838E12	3.0	1.27006327006327	787.3623492396434	1296.7032967032967	
1.7494311560783691E12	3.0	1.27006327006327	787.3623492396434	1265.9340659340658	
1.7494311560979004E12	3.0	1.27006327006327	787.3623492396434	1246.153846153846	
1.7494311561174316E12	3.0	1.27006327006327	787.3623492396434	1232.2344322344322	
1.749431156136963E12	3.0	1.2696192696192696	787.6376988984088	1218.3150183150183	
1.7494311561564941E12	3.0	1.2696192696192696	787.6376988984088	1224.9084249084249	
1.7494311561760254E12	3.0	1.2691752691752693	787.913241210425	1255.6776556776556	
1.7494311561955566E12	3.0	1.2696192696192696	787.6376988984088	1286.4468864468863	
1.749431156215088E12	3.0	1.2696192696192696	787.6376988984088	1306.9597069597069	
1.7494311562346191E12	3.0	1.2691752691752693	787.913241210425	1309.1575091575091	
1.7494311562541504E12	3.0	1.2691752691752693	787.913241210425	1304.0293040293038	
1.7494311562736816E12	3.0	1.2687312687312686	788.1889763779527	1302.5641025641025	
1.749431156293213E12	3.0	1.2687312687312686	788.1889763779527	1298.168498168498	
1.7494311563127441E12	3.0	1.2687312687312686	788.1889763779527	1282.7838827838827	
1.7494311563322754E12	3.0	1.2682872682872683	788.4649046035357	1265.9340659340658	
1.7494311563518066E12	3.0	1.2682872682872683	788.4649046035357	1257.142857142857	
1.749431156371338E12	3.0	1.267843267843268	788.7410260900017	1252.7472527472526	
1.7494311563908691E12	3.0	1.267843267843268	788.7410260900017	1247.6190476190475	
1.7494311564104004E12	3.0	1.267843267843268	788.7410260900017	1257.142857142857	
1.7494311564299316E12	3.0	1.267843267843268	788.7410260900017	1271.062271062271	
1.749431156449463E12	3.0	1.267843267843268	788.7410260900017	1277.6556776556777	
1.7494311564689941E12	3.0	1.267843267843268	788.7410260900017	1274.7252747252746	
1.7494311564885254E12	3.0	1.2673992673992673	789.0173410404624	1272.5274725274724	
1.7494311565080566E12	3.0	1.2673992673992673	789.0173410404624	1271.062271062271	
1.749431156527588E12	3.0	1.2665112665112666	789.5705521472393	1272.5274725274724	
1.7494311565471191E12	3.0	1.2673992673992673	789.0173410404624	1272.5274725274724	
1.7494311565666504E12	3.0	1.2673992673992673	789.0173410404624	1284.2490842490843	
1.7494311565861816E12	3.0	1.2669552669552668	789.2938496583143	1333.3333333333333	
1.749431156605713E12	3.0	1.2669552669552668	789.2938496583143	1411.7216117216117	
1.7494311566252441E12	3.0	1.2665112665112666	789.5705521472393	1482.7838827838827	
1.7494311566447754E12	3.0	1.2665112665112666	789.5705521472393	1533.3333333333333	
1.7494311566643066E12	3.0	1.2665112665112666	789.5705521472393	1547.985347985348	
1.749431156683838E12	3.0	1.2665112665112666	789.5705521472393	1536.9963369963368	
1.7494311567033691E12	3.0	1.266067266067266	789.8474487112046	1504.7619047619046	
1.7494311567229004E12	3.0	1.266067266067266	789.8474487112046	1468.131868131868	
1.7494311567424316E12	3.0	1.266067266067266	789.8474487112046	1446.8864468864467	
1.749431156761963E12	3.0	1.266067266067266	789.8474487112046	1414.6520146520145	
1.7494311567814941E12	3.0	1.2656232656232658	790.124539554464	1374.3589743589744	
1.7494311568010254E12	3.0	1.2656232656232658	790.124539554464	1341.3919413919414	
1.7494311568205566E12	3.0	1.2651792651792653	790.4018248815581	1319.4139194139193	
1.749431156840088E12	3.0	1.2651792651792653	790.4018248815581	1306.9597069597069	
1.7494311568596191E12	3.0	1.2647352647352648	790.6793048973143	1298.168498168498	
1.7494311568791504E12	3.0	1.2647352647352648	790.6793048973143	1304.7619047619046	
1.7494311568986816E12	3.0	1.2647352647352648	790.6793048973143	1323.8095238095236	
1.749431156918213E12	3.0	1.2647352647352648	790.6793048973143	1345.7875457875457	
1.7494311569377441E12	3.0	1.2647352647352648	790.6793048973143	1365.5677655677655	
1.7494311569572754E12	3.0	1.2642912642912645	790.956979806848	1364.8351648351647	
1.7494311569768066E12	3.0	1.2642912642912645	790.956979806848	1343.5897435897434	
1.749431156996338E12	3.0	1.2642912642912645	790.956979806848	1322.3443223443223	
1.7494311570158691E12	3.0	1.263847263847264	791.2348498155629	1297.4358974358975	
1.7494311570354004E12	3.0	1.263847263847264	791.2348498155629	1282.7838827838827	
1.7494311570549316E12	3.0	1.263847263847264	791.2348498155629	1287.9120879120878	
1.749431157074463E12	3.0	1.263847263847264	791.2348498155629	1304.7619047619046	
1.7494311570939941E12	3.0	1.2634032634032635	791.5129151291512	1317.9487179487178	
1.7494311571135254E12	3.0	1.2634032634032635	791.5129151291512	1323.076923076923	
1.7494311571330566E12	3.0	1.2634032634032635	791.5129151291512	1317.216117216117	
1.749431157152588E12	3.0	1.2634032634032635	791.5129151291512	1307.6923076923076	
1.7494311571721191E12	3.0	1.262959262959263	791.7911759535946	1301.8315018315018	
1.7494311571916504E12	3.0	1.262959262959263	791.7911759535946	1295.970695970696	
1.7494311572111816E12	3.0	1.262959262959263	791.7911759535946	1301.8315018315018	
1.749431157230713E12	3.0	1.2625152625152627	792.0696324951643	1301.8315018315018	
1.7494311572502441E12	3.0	1.262959262959263	791.7911759535946	1300.3663003663003	
1.7494311572697754E12	3.0	1.2625152625152627	792.0696324951643	1295.2380952380952	
1.7494311572893066E12	3.0	1.2625152625152627	792.0696324951643	1296.7032967032967	
1.749431157308838E12	3.0	1.262071262071262	792.3482849604221	1323.076923076923	
1.7494311573283691E12	3.0	1.262071262071262	792.3482849604221	1389.0109890109889	
1.7494311573479004E12	3.0	1.262071262071262	792.3482849604221	1468.131868131868	
1.7494311573674316E12	3.0	1.262071262071262	792.3482849604221	1525.2747252747251	
1.749431157386963E12	3.0	1.2616272616272617	792.6271335562202	1554.5787545787546	
1.7494311574064941E12	3.0	1.2616272616272617	792.6271335562202	1550.18315018315	
1.7494311574260254E12	3.0	1.2616272616272617	792.6271335562202	1517.216117216117	
1.7494311574455566E12	3.0	1.2616272616272617	792.6271335562202	1473.260073260073	
1.749431157465088E12	3.0	1.2616272616272617	792.6271335562202	1419.7802197802198	
1.7494311574846191E12	3.0	1.2611832611832612	792.9061784897025	1364.8351648351647	
1.7494311575041504E12	3.0	1.2611832611832612	792.9061784897025	1323.8095238095236	
1.7494311575236816E12	3.0	1.2611832611832612	792.9061784897025	1293.7728937728937	
1.749431157543213E12	3.0	1.2611832611832612	792.9061784897025	1270.3296703296703	
1.7494311575627441E12	3.0	1.2607392607392607	793.1854199683042	1246.8864468864467	
1.7494311575822754E12	3.0	1.2607392607392607	793.1854199683042	1254.212454212454	
1.7494311576018066E12	3.0	1.2607392607392607	793.1854199683042	1277.6556776556777	
1.749431157621338E12	3.0	1.2602952602952604	793.4648581997533	1304.0293040293038	
1.7494311576408691E12	3.0	1.2602952602952604	793.4648581997533	1306.9597069597069	
1.7494311576604004E12	3.0	1.2602952602952604	793.4648581997533	1295.2380952380952	
1.7494311576799316E12	3.0	1.25985125985126	793.7444933920705	1293.7728937728937	
1.749431157699463E12	3.0	1.25985125985126	793.7444933920705	1284.9816849816848	
1.7494311577189941E12	3.0	1.25985125985126	793.7444933920705	1269.5970695970695	
1.7494311577385254E12	3.0	1.25985125985126	793.7444933920705	1271.062271062271	
1.7494311577580566E12	3.0	1.2594072594072594	794.0243257535694	1268.8644688644688	
1.749431157777588E12	3.0	1.2594072594072594	794.0243257535694	1253.4798534798533	
1.7494311577971191E12	3.0	1.2594072594072594	794.0243257535694	1246.153846153846	
1.7494311578166504E12	3.0	1.2594072594072594	794.0243257535694	1249.084249084249	
1.7494311578361816E12	3.0	1.2589632589632591	794.3043554928583	1254.9450549450548	
1.749431157855713E12	3.0	1.2589632589632591	794.3043554928583	1255.6776556776556	
1.7494311578752441E12	3.0	1.2589632589632591	794.3043554928583	1260.07326007326	
1.7494311578947754E12	3.0	1.2585192585192588	794.5845828188392	1257.142857142857	
1.7494311579143066E12	3.0	1.2585192585192588	794.5845828188392	1268.8644688644688	
1.749431157933838E12	3.0	1.2585192585192588	794.5845828188392	1276.1904761904761	
1.7494311579533691E12	3.0	1.2571872571872573	795.4264524103831	1270.3296703296703	
1.7494311579729004E12	3.0	1.258075258075258	794.8650079407093	1267.3992673992673	
1.7494311579924316E12	3.0	1.258075258075258	794.8650079407093	1279.120879120879	
1.749431158011963E12	3.0	1.258075258075258	794.8650079407093	1309.1575091575091	
1.7494311580314941E12	3.0	1.258075258075258	794.8650079407093	1352.3809523809523	
1.7494311580510254E12	3.0	1.2576312576312578	795.1456310679611	1408.7912087912086	
1.7494311580705566E12	3.0	1.2576312576312578	795.1456310679611	1453.4798534798533	
1.749431158090088E12	3.0	1.2571872571872573	795.4264524103831	1483.5164835164835	
1.7494311581096191E12	3.0	1.2571872571872573	795.4264524103831	1493.7728937728937	
1.7494311581291504E12	3.0	1.2571872571872573	795.4264524103831	1474.7252747252746	
1.7494311581486816E12	3.0	1.2571872571872573	795.4264524103831	1433.6996336996335	
1.749431158168213E12	3.0	1.2567432567432568	795.7074721780604	1389.7435897435896	
1.7494311581877441E12	3.0	1.2567432567432568	795.7074721780604	1341.3919413919414	
1.7494311582072754E12	3.0	1.2562992562992563	795.9886905813747	1304.7619047619046	
1.7494311582268066E12	3.0	1.2562992562992563	795.9886905813747	1276.1904761904761	
1.749431158246338E12	3.0	1.2562992562992563	795.9886905813747	1251.2820512820513	
1.7494311582658691E12	3.0	1.2562992562992563	795.9886905813747	1236.6300366300366	
1.7494311582854004E12	3.0	1.255855255855256	796.2701078310058	1239.5604395604396	
1.7494311583049316E12	3.0	1.255855255855256	796.2701078310058	1247.6190476190475	
1.749431158324463E12	3.0	1.2554112554112555	796.5517241379309	1260.8058608058607	
1.7494311583439941E12	3.0	1.2554112554112555	796.5517241379309	1274.7252747252746	
1.7494311583635254E12	3.0	1.255855255855256	796.2701078310058	1266.6666666666665	
1.7494311583830566E12	3.0	1.2554112554112555	796.5517241379309	1252.014652014652	
1.749431158402588E12	3.0	1.2549672549672553	796.8335397134264	1251.2820512820513	
1.7494311584221191E12	3.0	1.2549672549672553	796.8335397134264	1247.6190476190475	
1.7494311584416504E12	3.0	1.2549672549672553	796.8335397134264	1244.6886446886447	
1.7494311584611816E12	3.0	1.2545232545232547	797.1155547690673	1236.6300366300366	
1.749431158480713E12	3.0	1.2545232545232547	797.1155547690673	1223.4432234432234	
1.7494311585002441E12	3.0	1.2545232545232547	797.1155547690673	1218.3150183150183	
1.7494311585197754E12	3.0	1.2545232545232547	797.1155547690673	1231.5018315018315	
1.7494311585393066E12	3.0	1.2545232545232547	797.1155547690673	1250.5494505494505	
1.749431158558838E12	3.0	1.254079254079254	797.3977695167285	1260.8058608058607	
1.7494311585783691E12	3.0	1.254079254079254	797.3977695167285	1257.8754578754579	
1.7494311585979004E12	3.0	1.254079254079254	797.3977695167285	1261.5384615384614	
1.7494311586174316E12	3.0	1.2536352536352537	797.680184168585	1264.4688644688645	
1.749431158636963E12	3.0	1.2536352536352537	797.680184168585	1268.131868131868	
1.7494311586564941E12	3.0	1.2536352536352537	797.680184168585	1270.3296703296703	
1.7494311586760254E12	3.0	1.2531912531912532	797.9627989371124	1271.7948717948716	
1.7494311586955566E12	3.0	1.2536352536352537	797.680184168585	1287.9120879120878	
1.749431158715088E12	3.0	1.2531912531912532	797.9627989371124	1318.6813186813185	
1.7494311587346191E12	3.0	1.2531912531912532	797.9627989371124	1381.6849816849815	
1.7494311587541504E12	3.0	1.2527472527472527	798.2456140350877	1462.2710622710622	
1.7494311587736816E12	3.0	1.2527472527472527	798.2456140350877	1547.2527472527472	
1.749431158793213E12	3.0	1.2527472527472527	798.2456140350877	1624.1758241758241	
1.7494311588127441E12	3.0	1.2527472527472527	798.2456140350877	1676.1904761904761	
1.7494311588322754E12	3.0	1.2527472527472527	798.2456140350877	1693.040293040293	
1.7494311588518066E12	3.0	1.2523032523032522	798.5286296755894	1685.7142857142856	
1.749431158871338E12	3.0	1.2523032523032522	798.5286296755894	1657.142857142857	
1.7494311588908691E12	3.0	1.2523032523032522	798.5286296755894	1624.9084249084249	
1.7494311589104004E12	3.0	1.251859251859252	798.8118460719985	1598.5347985347985	
1.7494311589299316E12	3.0	1.251859251859252	798.8118460719985	1580.9523809523807	
1.749431158949463E12	3.0	1.251859251859252	798.8118460719985	1562.6373626373625	
1.7494311589689941E12	3.0	1.2514152514152515	799.0952634379988	1539.194139194139	
1.7494311589885254E12	3.0	1.2514152514152515	799.0952634379988	1520.8791208791208	
1.7494311590080566E12	3.0	1.2514152514152515	799.0952634379988	1517.216117216117	
1.749431159027588E12	3.0	1.2509712509712512	799.3788819875775	1533.3333333333333	
1.7494311590471191E12	3.0	1.2509712509712512	799.3788819875775	1545.054945054945	
1.7494311590666504E12	3.0	1.2509712509712512	799.3788819875775	1542.1245421245421	
1.7494311590861816E12	3.0	1.2505272505272507	799.6627019350257	1533.3333333333333	
1.749431159105713E12	3.0	1.2500832500832497	799.9467234949389	1520.14652014652	
1.7494311591252441E12	3.0	1.2505272505272507	799.6627019350257	1490.10989010989	
1.7494311591447754E12	3.0	1.2505272505272507	799.6627019350257	1463.003663003663	
1.7494311591643066E12	3.0	1.2500832500832497	799.9467234949389	1457.142857142857	
1.749431159183838E12	3.0	1.2500832500832497	799.9467234949389	1468.131868131868	
1.7494311592033691E12	3.0	1.2496392496392494	800.2309468822172	1482.051282051282	
1.7494311592229004E12	3.0	1.2496392496392494	800.2309468822172	1488.6446886446886	
1.7494311592424316E12	3.0	1.2496392496392494	800.2309468822172	1487.179487179487	
1.749431159261963E12	3.0	1.2491952491952492	800.5153723120669	1479.8534798534797	
1.7494311592814941E12	3.0	1.2491952491952492	800.5153723120669	1474.7252747252746	
1.7494311593010254E12	3.0	1.2487512487512487	800.8000000000001	1466.6666666666665	
1.7494311593205566E12	3.0	1.2487512487512487	800.8000000000001	1453.4798534798533	
1.749431159340088E12	3.0	1.2487512487512487	800.8000000000001	1443.2234432234432	
1.7494311593596191E12	3.0	1.2487512487512487	800.8000000000001	1430.7692307692307	
1.7494311593791504E12	3.0	1.2478632478632479	801.3698630136987	1425.6410256410256	
1.7494311593986816E12	3.0	1.2483072483072482	801.0848301618354	1424.9084249084249	
1.749431159418213E12	3.0	1.2483072483072482	801.0848301618354	1435.8974358974358	
1.7494311594377441E12	3.0	1.2478632478632479	801.3698630136987	1465.201465201465	
1.7494311594572754E12	3.0	1.2478632478632479	801.3698630136987	1509.89010989011	
1.7494311594768066E12	3.0	1.2478632478632479	801.3698630136987	1584.6153846153845	
1.749431159496338E12	3.0	1.2478632478632479	801.3698630136987	1669.5970695970695	
1.7494311595158691E12	3.0	1.2474192474192471	801.6550987720236	1743.5897435897434	
1.7494311595354004E12	3.0	1.2474192474192471	801.6550987720236	1775.091575091575	
1.7494311595549316E12	3.0	1.2474192474192471	801.6550987720236	1764.102564102564	
1.749431159574463E12	3.0	1.2469752469752469	801.9405376535518	1726.7399267399267	
1.7494311595939941E12	3.0	1.2474192474192471	801.6550987720236	1686.4468864468863	
1.7494311596135254E12	3.0	1.2469752469752469	801.9405376535518	1649.084249084249	
1.7494311596330566E12	3.0	1.2469752469752469	801.9405376535518	1602.197802197802	
1.749431159652588E12	3.0	1.2465312465312466	802.226179875334	1542.8571428571427	
1.7494311596721191E12	3.0	1.2465312465312466	802.226179875334	1488.6446886446886	
1.7494311596916504E12	3.0	1.2465312465312466	802.226179875334	1454.9450549450548	
1.7494311597111816E12	3.0	1.2465312465312466	802.226179875334	1435.164835164835	
1.749431159730713E12	3.0	1.2460872460872459	802.5120256547302	1427.106227106227	
1.7494311597502441E12	3.0	1.2460872460872459	802.5120256547302	1430.7692307692307	
1.7494311597697754E12	3.0	1.2456432456432456	802.7980752094102	1436.6300366300366	
1.7494311597893066E12	3.0	1.2456432456432456	802.7980752094102	1443.956043956044	
1.749431159808838E12	3.0	1.2456432456432456	802.7980752094102	1445.4212454212454	
1.7494311598283691E12	3.0	1.245199245199245	803.0843287573543	1427.106227106227	
1.7494311598479004E12	3.0	1.245199245199245	803.0843287573543	1408.058608058608	
1.7494311598674316E12	3.0	1.245199245199245	803.0843287573543	1391.2087912087911	
1.749431159886963E12	3.0	1.2447552447552446	803.370786516854	1375.8241758241757	
1.7494311599064941E12	3.0	1.2447552447552446	803.370786516854	1356.0439560439559	
1.7494311599260254E12	3.0	1.2447552447552446	803.370786516854	1337.7289377289376	
1.7494311599455566E12	3.0	1.2447552447552446	803.370786516854	1323.076923076923	
1.749431159965088E12	3.0	1.2447552447552446	803.370786516854	1309.1575091575091	
1.7494311599846191E12	3.0	1.2447552447552446	803.370786516854	1298.168498168498	
1.7494311600041504E12	3.0	1.244311244311244	803.6574487065121	1298.9010989010987	
1.7494311600236816E12	3.0	1.2438672438672438	803.9443155452437	1307.6923076923076	
1.749431160043213E12	3.0	1.2438672438672438	803.9443155452437	1315.7509157509157	
1.7494311600627441E12	3.0	1.2438672438672438	803.9443155452437	1323.8095238095236	
1.7494311600822754E12	3.0	1.2438672438672438	803.9443155452437	1330.4029304029302	
1.7494311601018066E12	3.0	1.2434232434232433	804.2313872522765	1337.7289377289376	
1.749431160121338E12	3.0	1.2434232434232433	804.2313872522765	1336.263736263736	
1.7494311601408691E12	3.0	1.2434232434232433	804.2313872522765	1337.7289377289376	
1.7494311601604004E12	3.0	1.2429792429792428	804.5186640471513	1353.8461538461538	
1.7494311601799316E12	3.0	1.2434232434232433	804.2313872522765	1389.0109890109889	
1.749431160199463E12	3.0	1.2434232434232433	804.2313872522765	1446.153846153846	
1.7494311602189941E12	3.0	1.2425352425352425	804.8061461497232	1512.087912087912	
1.7494311602385254E12	3.0	1.2425352425352425	804.8061461497232	1550.9157509157508	
1.7494311602580566E12	3.0	1.2425352425352425	804.8061461497232	1558.2417582417581	
1.749431160277588E12	3.0	1.2425352425352425	804.8061461497232	1535.5311355311355	
1.7494311602971191E12	3.0	1.2425352425352425	804.8061461497232	1496.7032967032967	
1.7494311603166504E12	3.0	1.2420912420912418	805.0938337801609	1462.2710622710622	
1.7494311603361816E12	3.0	1.2420912420912418	805.0938337801609	1425.6410256410256	
1.749431160355713E12	3.0	1.2420912420912418	805.0938337801609	1375.8241758241757	
1.7494311603752441E12	3.0	1.2420912420912418	805.0938337801609	1325.2747252747251	
1.7494311603947754E12	3.0	1.2420912420912418	805.0938337801609	1289.3772893772893	
1.7494311604143066E12	3.0	1.2416472416472415	805.3817271589487	1267.3992673992673	
1.749431160433838E12	3.0	1.2416472416472415	805.3817271589487	1268.8644688644688	
1.7494311604533691E12	3.0	1.2416472416472415	805.3817271589487	1284.9816849816848	
1.7494311604729004E12	3.0	1.2416472416472415	805.3817271589487	1303.2967032967033	
1.7494311604924316E12	3.0	1.2412032412032412	805.6698265068861	1318.6813186813185	
1.749431160511963E12	3.0	1.2412032412032412	805.6698265068861	1327.4725274725274	
1.7494311605314941E12	3.0	1.2412032412032412	805.6698265068861	1322.3443223443223	
1.7494311605510254E12	3.0	1.2412032412032412	805.6698265068861	1300.3663003663003	
1.7494311605705566E12	3.0	1.2407592407592405	805.9581320450886	1276.1904761904761	
1.749431160590088E12	3.0	1.2407592407592405	805.9581320450886	1266.6666666666665	
1.7494311606096191E12	3.0	1.2407592407592405	805.9581320450886	1264.4688644688645	
1.7494311606291504E12	3.0	1.2407592407592405	805.9581320450886	1274.7252747252746	
1.7494311606486816E12	3.0	1.2403152403152402	806.2466439949884	1287.9120879120878	
1.749431160668213E12	3.0	1.2403152403152402	806.2466439949884	1292.3076923076922	
1.7494311606877441E12	3.0	1.2403152403152402	806.2466439949884	1289.3772893772893	
1.7494311607072754E12	3.0	1.2403152403152402	806.2466439949884	1284.2490842490843	
1.7494311607268066E12	3.0	1.2403152403152402	806.2466439949884	1282.051282051282	
1.749431160746338E12	3.0	1.2403152403152402	806.2466439949884	1291.5750915750914	
1.7494311607658691E12	3.0	1.2398712398712397	806.5353625783349	1286.4468864468863	
1.7494311607854004E12	3.0	1.2398712398712397	806.5353625783349	1273.9926739926739	
1.7494311608049316E12	3.0	1.2394272394272392	806.8242880171952	1273.260073260073	
1.749431160824463E12	3.0	1.2398712398712397	806.5353625783349	1284.9816849816848	
1.7494311608439941E12	3.0	1.2398712398712397	806.5353625783349	1326.007326007326	
1.7494311608635254E12	3.0	1.2398712398712397	806.5353625783349	1392.6739926739926	
1.7494311608830566E12	3.0	1.2403152403152402	806.2466439949884	1470.3296703296703	
1.749431160902588E12	3.0	1.2398712398712397	806.5353625783349	1531.8681318681317	
1.7494311609221191E12	3.0	1.2398712398712397	806.5353625783349	1566.3003663003662	
1.7494311609416504E12	3.0	1.2398712398712397	806.5353625783349	1565.5677655677655	
1.7494311609611816E12	3.0	1.2403152403152402	806.2466439949884	1532.6007326007325	
1.749431160980713E12	3.0	1.2403152403152402	806.2466439949884	1490.8424908424906	
1.7494311610002441E12	3.0	1.2403152403152402	806.2466439949884	1453.4798534798533	
1.7494311610197754E12	3.0	1.2403152403152402	806.2466439949884	1413.1868131868132	
1.7494311610393066E12	3.0	1.2407592407592405	805.9581320450886	1372.8937728937728	
1.749431161058838E12	3.0	1.2407592407592405	805.9581320450886	1341.3919413919414	
1.7494311610783691E12	3.0	1.2412032412032412	805.6698265068861	1320.14652014652	
1.7494311610979004E12	3.0	1.2412032412032412	805.6698265068861	1315.018315018315	
1.7494311611174316E12	3.0	1.2416472416472415	805.3817271589487	1325.2747252747251	
1.749431161136963E12	3.0	1.2416472416472415	805.3817271589487	1342.1245421245421	
1.7494311611564941E12	3.0	1.2416472416472415	805.3817271589487	1359.7069597069597	
1.7494311611760254E12	3.0	1.2420912420912418	805.0938337801609	1362.6373626373625	
1.7494311611955566E12	3.0	1.2429792429792428	804.5186640471513	1364.102564102564	
1.749431161215088E12	3.0	1.2429792429792428	804.5186640471513	1361.904761904762	
1.7494311612346191E12	3.0	1.2434232434232433	804.2313872522765	1362.6373626373625	
1.7494311612541504E12	3.0	1.2434232434232433	804.2313872522765	1357.5091575091574	
1.7494311612736816E12	3.0	1.2438672438672438	803.9443155452437	1345.054945054945	
1.749431161293213E12	3.0	1.244311244311244	803.6574487065121	1341.3919413919414	
1.7494311613127441E12	3.0	1.2447552447552446	803.370786516854	1345.7875457875457	
1.7494311613322754E12	3.0	1.245199245199245	803.0843287573543	1348.7179487179487	
1.7494311613518066E12	3.0	1.2456432456432456	802.7980752094102	1339.9267399267399	
1.749431161371338E12	3.0	1.2460872460872459	802.5120256547302	1323.076923076923	
1.7494311613908691E12	3.0	1.2465312465312466	802.226179875334	1309.1575091575091	
1.7494311614104004E12	3.0	1.2469752469752469	801.9405376535518	1302.5641025641025	
1.7494311614299316E12	3.0	1.2478632478632479	801.3698630136987	1309.1575091575091	
1.749431161449463E12	3.0	1.2483072483072482	801.0848301618354	1315.7509157509157	
1.7494311614689941E12	3.0	1.2487512487512487	800.8000000000001	1315.7509157509157	
1.7494311614885254E12	3.0	1.2491952491952492	800.5153723120669	1301.8315018315018	
1.7494311615080566E12	3.0	1.2496392496392494	800.2309468822172	1314.2857142857142	
1.749431161527588E12	3.0	1.2500832500832497	799.9467234949389	1340.6593406593406	
1.7494311615471191E12	3.0	1.2505272505272507	799.6627019350257	1376.5567765567764	
1.7494311615666504E12	3.0	1.2514152514152515	799.0952634379988	1428.5714285714284	
1.7494311615861816E12	3.0	1.251859251859252	798.8118460719985	1484.9816849816848	
1.749431161605713E12	3.0	1.2523032523032522	798.5286296755894	1531.135531135531	
1.7494311616252441E12	3.0	1.2527472527472527	798.2456140350877	1557.5091575091574	
1.7494311616447754E12	3.0	1.2536352536352537	797.680184168585	1543.5897435897434	
1.7494311616643066E12	3.0	1.254079254079254	797.3977695167285	1511.3553113553112	
1.749431161683838E12	3.0	1.2545232545232547	797.1155547690673	1468.8644688644688	
1.7494311617033691E12	3.0	1.2549672549672553	796.8335397134264	1431.5018315018315	
1.7494311617229004E12	3.0	1.255855255855256	796.2701078310058	1391.9413919413919	
1.7494311617424316E12	3.0	1.2562992562992563	795.9886905813747	1349.4505494505493	
1.749431161761963E12	3.0	1.2567432567432568	795.7074721780604	1315.7509157509157	
1.7494311617814941E12	3.0	1.2576312576312578	795.1456310679611	1280.5860805860805	
1.7494311618010254E12	3.0	1.258075258075258	794.8650079407093	1258.6080586080586	
1.7494311618205566E12	3.0	1.2585192585192588	794.5845828188392	1257.8754578754579	
1.749431161840088E12	3.0	1.2589632589632591	794.3043554928583	1270.3296703296703	
1.7494311618596191E12	3.0	1.25985125985126	793.7444933920705	1291.5750915750914	
1.7494311618791504E12	3.0	1.2607392607392607	793.1854199683042	1315.7509157509157	
1.7494311618986816E12	3.0	1.2611832611832612	792.9061784897025	1323.8095238095236	
1.749431161918213E12	3.0	1.262071262071262	792.3482849604221	1310.6227106227104	
1.7494311619377441E12	3.0	1.2625152625152627	792.0696324951643	1294.5054945054944	
1.7494311619572754E12	3.0	1.2634032634032635	791.5129151291512	1281.3186813186812	
1.7494311619768066E12	3.0	1.2642912642912645	790.956979806848	1273.9926739926739	
1.749431161996338E12	3.0	1.2651792651792653	790.4018248815581	1270.3296703296703	
1.7494311620158691E12	3.0	1.266067266067266	789.8474487112046	1275.4578754578754	
1.7494311620354004E12	3.0	1.2669552669552668	789.2938496583143	1268.131868131868	
1.7494311620549316E12	3.0	1.267843267843268	788.7410260900017	1260.8058608058607	
1.749431162074463E12	3.0	1.2691752691752693	787.913241210425	1252.7472527472526	
1.7494311620939941E12	3.0	1.27006327006327	787.3623492396434	1236.6300366300366	
1.7494311621135254E12	3.0	1.2713952713952714	786.537454164484	1226.3736263736264	
1.7494311621330566E12	3.0	1.2722832722832724	785.9884836852207	1230.03663003663	
1.749431162152588E12	3.0	1.2731712731712732	785.440278988666	1230.03663003663	
1.7494311621721191E12	3.0	1.274059274059274	784.8928384736016	1230.03663003663	
1.7494311621916504E12	3.0	1.274947274947275	784.34616054327	1238.8278388278388	
1.7494311622111816E12	3.0	1.275835275835276	783.8002436053592	1245.4212454212454	
1.749431162230713E12	3.0	1.2753912753912753	784.0731070496083	1254.9450549450548	
1.7494311622502441E12	3.0	1.2762792762792763	783.527570012176	1271.062271062271	
1.7494311622697754E12	3.0	1.2767232767232768	783.2550860719874	1304.0293040293038	
1.7494311622893066E12	3.0	1.2771672771672773	782.982791586998	1357.5091575091574	
1.749431162308838E12	3.0	1.2776112776112776	782.7106863596872	1420.5128205128203	
1.7494311623283691E12	3.0	1.2776112776112776	782.7106863596872	1449.084249084249	
1.7494311623479004E12	3.0	1.278055278055278	782.4387701928088	1441.0256410256409	
1.7494311623674316E12	3.0	1.278055278055278	782.4387701928088	1417.5824175824175	
1.749431162386963E12	3.0	1.2784992784992786	782.1670428893905	1384.6153846153845	
1.7494311624064941E12	3.0	1.2784992784992786	782.1670428893905	1350.18315018315	
1.7494311624260254E12	3.0	1.2784992784992786	782.1670428893905	1308.4249084249084	
1.7494311624455566E12	3.0	1.2789432789432789	781.8955042527339	1276.1904761904761	
1.749431162465088E12	3.0	1.2789432789432789	781.8955042527339	1247.6190476190475	
1.7494311624846191E12	3.0	1.2789432789432789	781.8955042527339	1216.8498168498168	
1.7494311625041504E12	3.0	1.2793872793872794	781.6241540864133	1189.7435897435896	
1.7494311625236816E12	3.0	1.2793872793872794	781.6241540864133	1182.4175824175823	
1.749431162543213E12	3.0	1.2793872793872794	781.6241540864133	1200.0	
1.7494311625627441E12	3.0	1.2798312798312799	781.3529921942758	1214.6520146520145	
1.7494311625822754E12	3.0	1.2798312798312799	781.3529921942758	1226.3736263736264	
1.7494311626018066E12	3.0	1.2798312798312799	781.3529921942758	1239.5604395604396	
1.749431162621338E12	3.0	1.2793872793872794	781.6241540864133	1249.084249084249	
1.7494311626408691E12	3.0	1.2798312798312799	781.3529921942758	1243.2234432234432	
1.7494311626604004E12	3.0	1.2802752802752801	781.0820183804404	1240.2930402930401	
1.7494311626799316E12	3.0	1.2798312798312799	781.3529921942758	1237.3626373626373	
1.749431162699463E12	3.0	1.2798312798312799	781.3529921942758	1238.095238095238	
1.7494311627189941E12	3.0	1.2802752802752801	781.0820183804404	1237.3626373626373	
1.7494311627385254E12	3.0	1.2802752802752801	781.0820183804404	1232.967032967033	
1.7494311627580566E12	3.0	1.2798312798312799	781.3529921942758	1219.047619047619	
1.749431162777588E12	3.0	1.2798312798312799	781.3529921942758	1214.6520146520145	
1.7494311627971191E12	3.0	1.2802752802752801	781.0820183804404	1210.2564102564102	
1.7494311628166504E12	3.0	1.2798312798312799	781.3529921942758	1202.197802197802	
1.7494311628361816E12	3.0	1.2798312798312799	781.3529921942758	1208.7912087912086	
1.749431162855713E12	3.0	1.2802752802752801	781.0820183804404	1224.1758241758241	
1.7494311628752441E12	3.0	1.2798312798312799	781.3529921942758	1232.2344322344322	
1.7494311628947754E12	3.0	1.2798312798312799	781.3529921942758	1241.7582417582416	
1.7494311629143066E12	3.0	1.2798312798312799	781.3529921942758	1243.2234432234432	
1.749431162933838E12	3.0	1.2798312798312799	781.3529921942758	1252.7472527472526	
1.7494311629533691E12	3.0	1.2798312798312799	781.3529921942758	1283.5164835164835	
1.7494311629729004E12	3.0	1.2798312798312799	781.3529921942758	1333.3333333333333	
1.7494311629924316E12	3.0	1.2798312798312799	781.3529921942758	1391.9413919413919	
1.749431163011963E12	3.0	1.2798312798312799	781.3529921942758	1457.142857142857	
1.7494311630314941E12	3.0	1.2798312798312799	781.3529921942758	1517.9487179487178	
1.7494311630510254E12	3.0	1.2793872793872794	781.6241540864133	1558.974358974359	
1.7494311630705566E12	3.0	1.2793872793872794	781.6241540864133	1567.032967032967	
1.749431163090088E12	3.0	1.2793872793872794	781.6241540864133	1553.113553113553	
1.7494311631096191E12	3.0	1.2798312798312799	781.3529921942758	1520.8791208791208	
1.7494311631291504E12	3.0	1.2798312798312799	781.3529921942758	1483.5164835164835	
1.7494311631486816E12	3.0	1.2798312798312799	781.3529921942758	1439.5604395604394	
1.749431163168213E12	3.0	1.2798312798312799	781.3529921942758	1375.091575091575	
1.7494311631877441E12	3.0	1.2798312798312799	781.3529921942758	1317.9487179487178	
1.7494311632072754E12	3.0	1.2798312798312799	781.3529921942758	1290.10989010989	
1.7494311632268066E12	3.0	1.2798312798312799	781.3529921942758	1285.7142857142856	
1.749431163246338E12	3.0	1.2798312798312799	781.3529921942758	1318.6813186813185	
1.7494311632658691E12	3.0	1.2793872793872794	781.6241540864133	1368.4981684981683	
1.7494311632854004E12	3.0	1.2798312798312799	781.3529921942758	1413.1868131868132	
1.7494311633049316E12	3.0	1.2793872793872794	781.6241540864133	1443.2234432234432	
1.749431163324463E12	3.0	1.2793872793872794	781.6241540864133	1454.9450549450548	
1.7494311633439941E12	3.0	1.2793872793872794	781.6241540864133	1449.084249084249	
1.7494311633635254E12	3.0	1.2789432789432789	781.8955042527339	1439.5604395604394	
1.7494311633830566E12	3.0	1.2784992784992786	782.1670428893905	1440.2930402930401	
1.749431163402588E12	3.0	1.278055278055278	782.4387701928088	1446.153846153846	
1.7494311634221191E12	3.0	1.278055278055278	782.4387701928088	1445.4212454212454	
1.7494311634416504E12	3.0	1.278055278055278	782.4387701928088	1436.6300366300366	
1.7494311634611816E12	3.0	1.278055278055278	782.4387701928088	1418.3150183150183	
1.749431163480713E12	3.0	1.2776112776112776	782.7106863596872	1411.7216117216117	
1.7494311635002441E12	3.0	1.2771672771672773	782.982791586998	1422.7106227106226	
1.7494311635197754E12	3.0	1.2767232767232768	783.2550860719874	1427.106227106227	
1.7494311635393066E12	3.0	1.2767232767232768	783.2550860719874	1423.4432234432234	
1.749431163558838E12	3.0	1.2762792762792763	783.527570012176	1421.245421245421	
1.7494311635783691E12	3.0	1.2762792762792763	783.527570012176	1422.7106227106226	
1.7494311635979004E12	3.0	1.2762792762792763	783.527570012176	1428.5714285714284	
1.7494311636174316E12	3.0	1.275835275835276	783.8002436053592	1428.5714285714284	
1.749431163636963E12	3.0	1.2753912753912753	784.0731070496083	1456.4102564102564	
1.7494311636564941E12	3.0	1.2745032745032745	784.6194042849678	1504.7619047619046	
1.7494311636760254E12	3.0	1.274947274947275	784.34616054327	1555.311355311355	
1.7494311636955566E12	3.0	1.274947274947275	784.34616054327	1614.6520146520145	
1.749431163715088E12	3.0	1.274947274947275	784.34616054327	1671.0622710622708	
1.7494311637346191E12	3.0	1.2745032745032745	784.6194042849678	1698.9010989010987	
1.7494311637541504E12	3.0	1.274059274059274	784.8928384736016	1704.0293040293038	
1.7494311637736816E12	3.0	1.274059274059274	784.8928384736016	1695.2380952380952	
1.749431163793213E12	3.0	1.2736152736152735	785.1664633083493	1665.9340659340658	
1.7494311638127441E12	3.0	1.2736152736152735	785.1664633083493	1622.7106227106226	
1.7494311638322754E12	3.0	1.2736152736152735	785.1664633083493	1580.2197802197802	
1.7494311638518066E12	3.0	1.2731712731712732	785.440278988666	1539.194139194139	
1.749431163871338E12	3.0	1.2731712731712732	785.440278988666	1499.6336996336995	
1.7494311638908691E12	3.0	1.2731712731712732	785.440278988666	1468.131868131868	
1.7494311639104004E12	3.0	1.2731712731712732	785.440278988666	1456.4102564102564	
1.7494311639299316E12	3.0	1.2736152736152735	785.1664633083493	1464.4688644688645	
1.749431163949463E12	3.0	1.2731712731712732	785.440278988666	1484.2490842490843	
1.7494311639689941E12	3.0	1.2727272727272727	785.7142857142857	1520.14652014652	
1.7494311639885254E12	3.0	1.2727272727272727	785.7142857142857	1549.4505494505493	
1.7494311640080566E12	3.0	1.2722832722832724	785.9884836852207	1558.2417582417581	
1.749431164027588E12	3.0	1.271839271839272	786.2628731017629	1553.113553113553	
1.7494311640471191E12	3.0	1.271839271839272	786.2628731017629	1536.263736263736	
1.7494311640666504E12	3.0	1.2713952713952714	786.537454164484	1504.0293040293038	
1.7494311640861816E12	3.0	1.2713952713952714	786.537454164484	1475.4578754578754	
1.749431164105713E12	3.0	1.270951270951271	786.8122270742358	1462.2710622710622	
1.7494311641252441E12	3.0	1.270951270951271	786.8122270742358	1460.8058608058607	
1.7494311641447754E12	3.0	1.2705072705072706	787.0871920321509	1473.260073260073	
1.7494311641643066E12	3.0	1.2705072705072706	787.0871920321509	1493.040293040293	
1.749431164183838E12	3.0	1.27006327006327	787.3623492396434	1509.89010989011	
1.7494311642033691E12	3.0	1.2696192696192696	787.6376988984088	1527.4725274725274	
1.7494311642229004E12	3.0	1.2696192696192696	787.6376988984088	1537.7289377289376	
1.7494311642424316E12	3.0	1.2696192696192696	787.6376988984088	1542.1245421245421	
1.749431164261963E12	3.0	1.2696192696192696	787.6376988984088	1543.5897435897434	
1.7494311642814941E12	3.0	1.2691752691752693	787.913241210425	1553.8461538461538	
1.7494311643010254E12	3.0	1.2691752691752693	787.913241210425	1591.2087912087911	
1.7494311643205566E12	3.0	1.2687312687312686	788.1889763779527	1664.4688644688645	
1.749431164340088E12	3.0	1.2687312687312686	788.1889763779527	1745.7875457875457	
1.7494311643596191E12	3.0	1.2682872682872683	788.4649046035357	1806.5934065934064	
1.7494311643791504E12	3.0	1.2682872682872683	788.4649046035357	1837.3626373626373	
1.7494311643986816E12	3.0	1.267843267843268	788.7410260900017	1830.03663003663	
1.749431164418213E12	3.0	1.2673992673992673	789.0173410404624	1805.128205128205	
1.7494311644377441E12	3.0	1.2673992673992673	789.0173410404624	1771.4285714285713	
1.7494311644572754E12	3.0	1.2669552669552668	789.2938496583143	1750.9157509157508	
1.7494311644768066E12	3.0	1.2669552669552668	789.2938496583143	1731.8681318681317	
1.749431164496338E12	3.0	1.2669552669552668	789.2938496583143	1686.4468864468863	
1.7494311645158691E12	3.0	1.2665112665112666	789.5705521472393	1609.5238095238094	
1.7494311645354004E12	3.0	1.266067266067266	789.8474487112046	1531.135531135531	
1.7494311645549316E12	3.0	1.266067266067266	789.8474487112046	1464.4688644688645	
1.749431164574463E12	3.0	1.2656232656232658	790.124539554464	1419.7802197802198	
1.7494311645939941E12	3.0	1.2656232656232658	790.124539554464	1399.2673992673992	
1.7494311646135254E12	3.0	1.2656232656232658	790.124539554464	1380.2197802197802	
1.7494311646330566E12	3.0	1.2651792651792653	790.4018248815581	1350.9157509157508	
1.749431164652588E12	3.0	1.2647352647352648	790.6793048973143	1331.135531135531	
1.7494311646721191E12	3.0	1.2647352647352648	790.6793048973143	1316.4835164835165	
1.7494311646916504E12	3.0	1.2647352647352648	790.6793048973143	1301.098901098901	
1.7494311647111816E12	3.0	1.2647352647352648	790.6793048973143	1289.3772893772893	
1.749431164730713E12	3.0	1.2647352647352648	790.6793048973143	1282.7838827838827	
1.7494311647502441E12	3.0	1.2642912642912645	790.956979806848	1294.5054945054944	
1.7494311647697754E12	3.0	1.2642912642912645	790.956979806848	1307.6923076923076	
1.7494311647893066E12	3.0	1.2642912642912645	790.956979806848	1322.3443223443223	
1.749431164808838E12	3.0	1.2642912642912645	790.956979806848	1323.8095238095236	
1.7494311648283691E12	3.0	1.2642912642912645	790.956979806848	1324.5421245421244	
1.7494311648479004E12	3.0	1.2642912642912645	790.956979806848	1325.2747252747251	
1.7494311648674316E12	3.0	1.2642912642912645	790.956979806848	1330.4029304029302	
1.749431164886963E12	3.0	1.2642912642912645	790.956979806848	1337.7289377289376	
1.7494311649064941E12	3.0	1.2647352647352648	790.6793048973143	1330.4029304029302	
1.7494311649260254E12	3.0	1.2651792651792653	790.4018248815581	1325.2747252747251	
1.7494311649455566E12	3.0	1.2656232656232658	790.124539554464	1325.2747252747251	
1.749431164965088E12	3.0	1.266067266067266	789.8474487112046	1328.2051282051282	
1.7494311649846191E12	3.0	1.266067266067266	789.8474487112046	1350.9157509157508	
1.7494311650041504E12	3.0	1.2669552669552668	789.2938496583143	1398.5347985347985	
1.7494311650236816E12	3.0	1.2673992673992673	789.0173410404624	1458.6080586080584	
1.749431165043213E12	3.0	1.2682872682872683	788.4649046035357	1509.89010989011	
1.7494311650627441E12	3.0	1.2696192696192696	787.6376988984088	1516.4835164835163	
1.7494311650822754E12	3.0	1.2696192696192696	787.6376988984088	1491.5750915750914	
1.7494311651018066E12	3.0	1.270951270951271	786.8122270742358	1452.014652014652	
1.749431165121338E12	3.0	1.2722832722832724	785.9884836852207	1405.128205128205	
1.7494311651408691E12	3.0	1.2736152736152735	785.1664633083493	1368.4981684981683	
1.7494311651604004E12	3.0	1.274947274947275	784.34616054327	1342.8571428571427	
1.7494311651799316E12	3.0	1.2762792762792763	783.527570012176	1323.8095238095236	
1.749431165199463E12	3.0	1.2776112776112776	782.7106863596872	1302.5641025641025	
1.7494311652189941E12	3.0	1.2793872793872794	781.6241540864133	1273.260073260073	
1.7494311652385254E12	3.0	1.2807192807192807	780.8112324492979	1249.8168498168498	
1.7494311652580566E12	3.0	1.2824952824952824	779.7299636489528	1249.8168498168498	
1.749431165277588E12	3.0	1.2847152847152847	778.3825816485225	1266.6666666666665	
1.7494311652971191E12	3.0	1.2864912864912865	777.3080241587576	1303.2967032967033	
1.7494311653166504E12	3.0	1.2882672882672883	776.2364294330519	1333.3333333333333	
1.7494311653361816E12	3.0	1.29004329004329	775.1677852348994	1341.3919413919414	
1.749431165355713E12	3.0	1.291819291819292	774.1020793950851	1338.4615384615383	
1.7494311653752441E12	3.0	1.2944832944832945	772.5090036014406	1334.065934065934	
1.7494311653947754E12	3.0	1.296259296259296	771.4505908545984	1323.076923076923	
1.7494311654143066E12	3.0	1.2989232989232988	769.868398564348	1308.4249084249084	
1.749431165433838E12	3.0	1.3006993006993006	768.8172043010753	1288.6446886446886	
1.7494311654533691E12	3.0	1.302919302919303	767.5072414380644	1272.5274725274724	
1.7494311654729004E12	3.0	1.3051393051393052	766.2017349889437	1273.260073260073	
1.7494311654924316E12	3.0	1.3073593073593073	764.9006622516557	1269.5970695970695	
1.749431165511963E12	3.0	1.309135309135309	763.8629811768697	1256.4102564102564	
1.7494311655314941E12	3.0	1.3113553113553114	762.5698324022347	1252.7472527472526	
1.7494311655510254E12	3.0	1.3131313131313131	761.5384615384615	1266.6666666666665	
1.7494311655705566E12	3.0	1.3153513153513152	760.2531645569621	1268.131868131868	
1.749431165590088E12	3.0	1.3175713175713175	758.9721988205561	1270.3296703296703	
1.7494311656096191E12	3.0	1.3193473193473193	757.9505300353358	1276.923076923077	
1.7494311656291504E12	3.0	1.3215673215673214	756.6773055602218	1279.8534798534797	
1.7494311656486816E12	3.0	1.3237873237873237	755.4083515009224	1274.7252747252746	
1.749431165668213E12	3.0	1.326007326007326	754.1436464088398	1270.3296703296703	
1.7494311656877441E12	3.0	1.328671328671329	752.6315789473683	1261.5384615384614	
1.7494311657072754E12	3.0	1.3313353313353316	751.1255627813906	1273.9926739926739	
1.7494311657268066E12	3.0	1.3339993339993341	749.6255616575137	1326.007326007326	
1.749431165746338E12	3.0	1.336663336663337	748.1315396113602	1400.7326007326005	
1.7494311657658691E12	3.0	1.3388833388833388	746.8910628419831	1480.5860805860805	
1.7494311657854004E12	3.0	1.3415473415473416	745.4079099784875	1522.3443223443223	
1.7494311658049316E12	3.0	1.3437673437673436	744.1764414339997	1522.3443223443223	
1.749431165824463E12	3.0	1.3464313464313464	742.7040395713108	1496.7032967032967	
1.7494311658439941E12	3.0	1.348651348651349	741.4814814814814	1447.6190476190475	
1.7494311658635254E12	3.0	1.3504273504273505	740.506329113924	1392.6739926739926	
1.7494311658830566E12	3.0	1.3522033522033523	739.5337383024133	1340.6593406593406	
1.749431165902588E12	3.0	1.3544233544233546	738.3215866251434	1304.0293040293038	
1.7494311659221191E12	3.0	1.3566433566433567	737.1134020618557	1273.9926739926739	
1.7494311659416504E12	3.0	1.3584193584193585	736.1496976630168	1256.4102564102564	
1.7494311659611816E12	3.0	1.36019536019536	735.1885098743268	1252.7472527472526	
1.749431165980713E12	3.0	1.3615273615273613	734.4692646339475	1251.2820512820513	
1.7494311660002441E12	3.0	1.3633033633033633	733.5124572545188	1264.4688644688645	
1.7494311660197754E12	3.0	1.3650793650793651	732.5581395348837	1294.5054945054944	
1.7494311660393066E12	3.0	1.3664113664113664	731.8440292445166	1324.5421245421244	
1.749431166058838E12	3.0	1.3681873681873682	730.894045107902	1331.8681318681317	
1.7494311660783691E12	3.0	1.3695193695193695	730.183173934187	1319.4139194139193	
1.7494311660979004E12	3.0	1.3712953712953713	729.2374939290918	1301.098901098901	
1.7494311661174316E12	3.0	1.3726273726273726	728.5298398835517	1287.9120879120878	
1.749431166136963E12	3.0	1.3744033744033743	727.5884348247456	1284.9816849816848	
1.7494311661564941E12	3.0	1.3761793761793761	726.6494595902565	1288.6446886446886	
1.7494311661760254E12	3.0	1.3783993783993782	725.479143179256	1286.4468864468863	
1.7494311661955566E12	3.0	1.381063381063381	724.0797299469539	1288.6446886446886	
1.749431166215088E12	3.0	1.3832833832833833	722.9176697159364	1294.5054945054944	
1.7494311662346191E12	3.0	1.3855033855033851	721.7593334401539	1295.970695970696	
1.7494311662541504E12	3.0	1.3872793872793872	720.8353336533846	1293.040293040293	
1.7494311662736816E12	3.0	1.389055389055389	719.9136966597412	1288.6446886446886	
1.749431166293213E12	3.0	1.3908313908313905	718.9944134078213	1273.260073260073	
1.7494311663127441E12	3.0	1.3926073926073925	718.077474892396	1253.4798534798533	
1.7494311663322754E12	3.0	1.394383394383394	717.1628721541157	1254.9450549450548	
1.7494311663518066E12	3.0	1.396159396159396	716.2505962792177	1271.7948717948716	
1.749431166371338E12	3.0	1.397935397935398	715.3406383992378	1282.051282051282	
1.7494311663908691E12	3.0	1.4014874014874013	713.5276413749407	1286.4468864468863	
1.7494311664104004E12	3.0	1.404151404151404	712.1739130434783	1301.098901098901	
1.7494311664299316E12	3.0	1.4068154068154068	710.8253116616695	1336.263736263736	
1.749431166449463E12	3.0	1.4090354090354091	709.7053726169844	1387.5457875457876	
1.7494311664689941E12	3.0	1.4103674103674104	709.0351015268377	1438.095238095238	
1.7494311664885254E12	3.0	1.411699411699412	708.3660952980027	1463.7362637362637	
1.7494311665080566E12	3.0	1.4125874125874127	707.9207920792079	1454.9450549450548	
1.749431166527588E12	3.0	1.4143634143634145	707.0318631298069	1423.4432234432234	
1.7494311665471191E12	3.0	1.416139416139416	706.1451638187804	1388.278388278388	
1.7494311665666504E12	3.0	1.417027417027417	705.7026476578411	1354.5787545787546	
1.7494311665861816E12	3.0	1.417915417915418	705.2606857679662	1317.9487179487178	
1.749431166605713E12	3.0	1.4192474192474194	704.5987799155325	1298.168498168498	
1.7494311666252441E12	3.0	1.4201354201354202	704.1581991558543	1281.3186813186812	
1.7494311666447754E12	3.0	1.4214674214674214	703.4983601436826	1280.5860805860805	
1.7494311666643066E12	3.0	1.4223554223554224	703.0591540502575	1312.8205128205127	
1.749431166683838E12	3.0	1.4223554223554224	703.0591540502575	1351.6483516483515	
1.7494311667033691E12	3.0	1.4232434232434235	702.6204960224613	1372.8937728937728	
1.7494311667229004E12	3.0	1.4241314241314242	702.182385035074	1386.080586080586	
1.7494311667424316E12	3.0	1.425019425019425	701.7448200654308	1405.128205128205	
1.749431166761963E12	3.0	1.425907425907426	701.3078000934142	1419.047619047619	
1.7494311667814941E12	3.0	1.4263514263514263	701.0894941634241	1418.3150183150183	
1.7494311668010254E12	3.0	1.4267954267954268	700.871324101447	1421.245421245421	
1.7494311668205566E12	3.0	1.4272394272394273	700.6532897806812	1422.7106227106226	
1.749431166840088E12	3.0	1.4276834276834278	700.4353910744829	1416.8498168498168	
1.7494311668596191E12	3.0	1.4285714285714286	700.0	1411.7216117216117	
1.7494311668791504E12	3.0	1.4290154290154289	699.7825073792139	1403.6630036630036	
1.7494311668986816E12	3.0	1.4294594294594296	699.5651498679919	1402.9304029304028	
1.749431166918213E12	3.0	1.4294594294594296	699.5651498679919	1415.3846153846152	
1.7494311669377441E12	3.0	1.4294594294594296	699.5651498679919	1424.9084249084249	
1.7494311669572754E12	3.0	1.4312354312354312	698.6970684039088	1429.3040293040292	
1.7494311669768066E12	3.0	1.4330114330114332	697.8311386522075	1438.8278388278388	
1.749431166996338E12	3.0	1.4334554334554337	697.6149914821124	1457.8754578754579	
1.7494311670158691E12	3.0	1.433899433899434	697.3989781699953	1465.201465201465	
1.7494311670354004E12	3.0	1.433899433899434	697.3989781699953	1468.8644688644688	
1.7494311670549316E12	3.0	1.4343434343434343	697.1830985915493	1492.3076923076922	
1.749431167074463E12	3.0	1.4352314352314353	696.7517401392112	1536.263736263736	
1.7494311670939941E12	3.0	1.4347874347874348	696.9673526226211	1602.9304029304028	
1.7494311671135254E12	3.0	1.4347874347874348	696.9673526226211	1690.8424908424906	
1.7494311671330566E12	3.0	1.4352314352314353	696.7517401392112	1772.8937728937728	
1.749431167152588E12	3.0	1.4352314352314353	696.7517401392112	1841.0256410256409	
1.7494311671721191E12	3.0	1.4352314352314353	696.7517401392112	1878.3882783882782	
1.7494311671916504E12	3.0	1.4356754356754358	696.5362610174733	1884.249084249084	
1.7494311672111816E12	3.0	1.4356754356754358	696.5362610174733	1871.7948717948716	
1.749431167230713E12	3.0	1.4352314352314353	696.7517401392112	1837.3626373626373	
1.7494311672502441E12	3.0	1.4347874347874348	696.9673526226211	1797.069597069597	
1.7494311672697754E12	3.0	1.4347874347874348	696.9673526226211	1753.113553113553	
1.7494311672893066E12	3.0	1.4347874347874348	696.9673526226211	1717.216117216117	
1.749431167308838E12	3.0	1.4347874347874348	696.9673526226211	1695.2380952380952	
1.7494311673283691E12	3.0	1.4347874347874348	696.9673526226211	1684.9816849816848	
1.7494311673479004E12	3.0	1.4347874347874348	696.9673526226211	1686.4468864468863	
1.7494311673674316E12	3.0	1.4352314352314353	696.7517401392112	1696.7032967032967	
1.749431167386963E12	3.0	1.4352314352314353	696.7517401392112	1710.6227106227104	
1.7494311674064941E12	3.0	1.4361194361194363	696.3209151337146	1724.5421245421244	
1.7494311674260254E12	3.0	1.437007437007437	695.8906225861269	1733.3333333333333	
1.7494311674455566E12	3.0	1.4383394383394383	695.2461799660441	1742.8571428571427	
1.749431167465088E12	3.0	1.4387834387834388	695.0316309211541	1747.2527472527472	
1.7494311674846191E12	3.0	1.4387834387834388	695.0316309211541	1733.3333333333333	
1.7494311675041504E12	3.0	1.4387834387834388	695.0316309211541	1717.9487179487178	
1.7494311675236816E12	3.0	1.4383394383394383	695.2461799660441	1706.227106227106	
1.749431167543213E12	3.0	1.4383394383394383	695.2461799660441	1694.5054945054944	
1.7494311675627441E12	3.0	1.4378954378954378	695.4608615099584	1682.051282051282	
1.7494311675822754E12	3.0	1.437007437007437	695.8906225861269	1662.2710622710622	
1.7494311676018066E12	3.0	1.4365634365634365	696.105702364395	1652.0146520146518	
1.749431167621338E12	3.0	1.4361194361194363	696.3209151337146	1645.4212454212452	
1.7494311676408691E12	3.0	1.4356754356754358	696.5362610174733	1643.2234432234432	
1.7494311676604004E12	3.0	1.4356754356754358	696.5362610174733	1646.153846153846	
1.7494311676799316E12	3.0	1.4347874347874348	696.9673526226211	1652.0146520146518	
1.749431167699463E12	3.0	1.433899433899434	697.3989781699953	1661.5384615384614	
1.7494311677189941E12	3.0	1.4334554334554337	697.6149914821124	1687.179487179487	
1.7494311677385254E12	3.0	1.4330114330114332	697.8311386522075	1754.5787545787546	
1.7494311677580566E12	3.0	1.4325674325674327	698.0474198047419	1843.2234432234432	
1.749431167777588E12	3.0	1.4321234321234322	698.2638350643311	1936.9963369963368	
1.7494311677971191E12	3.0	1.4312354312354312	698.6970684039088	2013.9194139194137	
1.7494311678166504E12	3.0	1.430791430791431	698.9138867339022	2050.5494505494503	
1.7494311678361816E12	3.0	1.4303474303474302	699.1308396709608	2030.7692307692307	
1.749431167855713E12	3.0	1.42990342990343	699.347927340475	1983.8827838827838	
1.7494311678752441E12	3.0	1.4294594294594296	699.5651498679919	1934.7985347985348	
1.7494311678947754E12	3.0	1.4285714285714286	700.0	1874.7252747252746	
1.7494311679143066E12	3.0	1.4281274281274283	700.2176278563655	1816.8498168498168	
1.749431167933838E12	3.0	1.4267954267954268	700.871324101447	1755.311355311355	
1.7494311679533691E12	3.0	1.4267954267954268	700.871324101447	1697.4358974358972	
1.7494311679729004E12	3.0	1.4263514263514263	701.0894941634241	1660.07326007326	
1.7494311679924316E12	3.0	1.425907425907426	701.3078000934142	1638.8278388278386	
1.749431168011963E12	3.0	1.425019425019425	701.7448200654308	1633.6996336996335	
1.7494311680314941E12	3.0	1.4245754245754247	701.9635343618513	1638.8278388278386	
1.7494311680510254E12	3.0	1.4236874236874235	702.401372212693	1646.8864468864467	
1.7494311680705566E12	3.0	1.4232434232434235	702.6204960224613	1648.3516483516482	
1.749431168090088E12	3.0	1.422799422799423	702.839756592292	1646.153846153846	
1.7494311681096191E12	3.0	1.4223554223554224	703.0591540502575	1643.2234432234432	
1.7494311681291504E12	3.0	1.4214674214674214	703.4983601436826	1630.03663003663	
1.7494311681486816E12	3.0	1.4205794205794209	703.9381153305203	1608.7912087912086	
1.749431168168213E12	3.0	1.4201354201354202	704.1581991558543	1578.021978021978	
1.7494311681877441E12	3.0	1.4192474192474194	704.5987799155325	1550.18315018315	
1.7494311682072754E12	3.0	1.4188034188034189	704.8192771084337	1520.8791208791208	
1.7494311682268066E12	3.0	1.4183594183594184	705.0399123493504	1501.8315018315018	
1.749431168246338E12	3.0	1.4174714174714174	705.4815974941268	1500.3663003663003	
1.7494311682658691E12	3.0	1.417027417027417	705.7026476578411	1506.227106227106	
1.7494311682854004E12	3.0	1.4165834165834168	705.9238363892806	1504.0293040293038	
1.7494311683049316E12	3.0	1.4156954156954156	706.3666300768386	1499.6336996336995	
1.749431168324463E12	3.0	1.4152514152514155	706.5882352941176	1493.040293040293	
1.7494311683439941E12	3.0	1.4148074148074148	706.8099796014435	1487.179487179487	
1.7494311683635254E12	3.0	1.413919413919414	707.2538860103626	1504.7619047619046	
1.7494311683830566E12	3.0	1.4134754134754133	707.4760483744307	1560.4395604395604	
1.749431168402588E12	3.0	1.4130314130314132	707.6983503534956	1647.6190476190475	
1.7494311684221191E12	3.0	1.4125874125874127	707.9207920792079	1725.2747252747251	
1.7494311684416504E12	3.0	1.4121434121434122	708.1433736833831	1775.091575091575	
1.7494311684611816E12	3.0	1.411699411699412	708.3660952980027	1790.4761904761904	
1.749431168480713E12	3.0	1.4112554112554114	708.5889570552147	1759.7069597069597	
1.7494311685002441E12	3.0	1.410811410811411	708.8119590873328	1698.168498168498	
1.7494311685197754E12	3.0	1.4103674103674104	709.0351015268377	1643.956043956044	
1.7494311685393066E12	3.0	1.4099234099234101	709.2583845063768	1599.2673992673992	
1.749431168558838E12	3.0	1.4094794094794094	709.4818081587651	1564.102564102564	
1.7494311685783691E12	3.0	1.4090354090354091	709.7053726169844	1534.065934065934	
1.7494311685979004E12	3.0	1.4081474081474081	710.1529244836828	1506.9597069597069	
1.7494311686174316E12	3.0	1.4077034077034078	710.3769121589654	1490.10989010989	
1.749431168636963E12	3.0	1.4068154068154068	710.8253116616695	1481.3186813186812	
1.7494311686564941E12	3.0	1.4063714063714066	711.049723756906	1476.923076923077	
1.7494311686760254E12	3.0	1.405927405927406	711.2742775935575	1476.1904761904761	
1.7494311686955566E12	3.0	1.405039405039405	711.7238110285984	1465.9340659340658	
1.749431168715088E12	3.0	1.404151404151404	712.1739130434783	1454.9450549450548	
1.7494311687346191E12	3.0	1.4037074037074038	712.3991776055669	1459.3406593406592	
1.7494311687541504E12	3.0	1.4032634032634033	712.624584717608	1453.4798534798533	
1.7494311687736816E12	3.0	1.402819402819403	712.8501345149548	1441.7582417582416	
1.749431168793213E12	3.0	1.4023754023754025	713.0758271331327	1422.7106227106226	
1.7494311688127441E12	3.0	1.4014874014874013	713.5276413749407	1402.9304029304028	
1.7494311688322754E12	3.0	1.4014874014874013	713.5276413749407	1387.5457875457876	
1.7494311688518066E12	3.0	1.4005994005994005	713.9800285306706	1375.091575091575	
1.749431168871338E12	3.0	1.4001554001554	714.2064372918979	1378.021978021978	
1.7494311688908691E12	3.0	1.3997113997113997	714.4329896907217	1381.6849816849815	
1.7494311689104004E12	3.0	1.3992673992673992	714.6596858638744	1380.2197802197802	
1.7494311689299316E12	3.0	1.3988233988233985	714.8865259482623	1380.952380952381	
1.749431168949463E12	3.0	1.3983793983793982	715.1135100809653	1369.230769230769	
1.7494311689689941E12	3.0	1.3974913974913972	715.5679110405084	1358.2417582417581	
1.7494311689885254E12	3.0	1.3970473970473969	715.7953281423805	1356.7765567765566	
1.7494311690080566E12	3.0	1.3966033966033966	716.0228898426324	1386.080586080586	
1.749431169027588E12	3.0	1.3966033966033966	716.0228898426324	1438.095238095238	
1.7494311690471191E12	3.0	1.3957153957153956	716.4784475902657	1512.087912087912	
1.7494311690666504E12	3.0	1.395271395271395	716.7064439140812	1587.5457875457873	
1.7494311690861816E12	3.0	1.394383394383394	717.1628721541157	1632.2344322344322	
1.749431169105713E12	3.0	1.3939393939393938	717.3913043478261	1648.3516483516482	
1.7494311691252441E12	3.0	1.3934953934953933	717.6198821092879	1630.03663003663	
1.7494311691447754E12	3.0	1.3930513930513928	717.8486055776893	1584.6153846153845	
1.7494311691643066E12	3.0	1.3926073926073925	718.077474892396	1517.216117216117	
1.749431169183838E12	3.0	1.3917193917193915	718.5356516190781	1451.2820512820513	
1.7494311692033691E12	3.0	1.391275391275391	718.7649593106751	1405.8608058608058	
1.7494311692229004E12	3.0	1.3908313908313905	718.9944134078213	1380.2197802197802	
1.7494311692424316E12	3.0	1.3903873903873902	719.2240140507745	1356.7765567765566	
1.749431169261963E12	3.0	1.38994338994339	719.4537613799713	1339.9267399267399	
1.7494311692814941E12	3.0	1.3894993894993894	719.6836555360281	1353.113553113553	
1.7494311693010254E12	3.0	1.389055389055389	719.9136966597412	1382.4175824175823	
1.7494311693205566E12	3.0	1.3886113886113887	720.1438848920864	1416.8498168498168	
1.749431169340088E12	3.0	1.3881673881673882	720.3742203742204	1429.3040293040292	
1.7494311693596191E12	3.0	1.3863913863913864	721.2970376301041	1415.3846153846152	
1.7494311693791504E12	3.0	1.3868353868353867	721.0661117336322	1402.9304029304028	
1.7494311693986816E12	3.0	1.3863913863913864	721.2970376301041	1389.0109890109889	
1.749431169418213E12	3.0	1.3859473859473859	721.5281114848631	1368.4981684981683	
1.7494311694377441E12	3.0	1.3855033855033851	721.7593334401539	1361.1721611721612	
1.7494311694572754E12	3.0	1.3846153846153846	722.2222222222223	1358.2417582417581	
1.7494311694768066E12	3.0	1.384171384171384	722.4538893344026	1349.4505494505493	
1.749431169496338E12	3.0	1.3837273837273838	722.6857051179207	1336.263736263736	
1.7494311695158691E12	3.0	1.3832833832833833	722.9176697159364	1331.8681318681317	
1.7494311695354004E12	3.0	1.3828393828393828	723.1497832717932	1317.216117216117	
1.7494311695549316E12	3.0	1.3823953823953825	723.3820459290188	1301.8315018315018	
1.749431169574463E12	3.0	1.3815073815073813	723.8470191226097	1312.087912087912	
1.7494311695939941E12	3.0	1.3815073815073813	723.8470191226097	1329.6703296703297	
1.7494311696135254E12	3.0	1.3806193806193807	724.3125904486252	1343.5897435897434	
1.7494311696330566E12	3.0	1.38017538017538	724.5456007720766	1359.7069597069597	
1.749431169652588E12	3.0	1.3797313797313795	724.778761061947	1392.6739926739926	
1.7494311696721191E12	3.0	1.3792873792873792	725.0120714630614	1438.095238095238	
1.7494311696916504E12	3.0	1.3788433788433787	725.2455321204316	1493.040293040293	
1.7494311697111816E12	3.0	1.3783993783993782	725.479143179256	1544.3223443223442	
1.749431169730713E12	3.0	1.377955377955378	725.7129047849203	1575.091575091575	
1.7494311697502441E12	3.0	1.377067377067377	726.1808802192488	1576.5567765567764	
1.7494311697697754E12	3.0	1.3766233766233766	726.4150943396227	1550.18315018315	
1.7494311697893066E12	3.0	1.3761793761793761	726.6494595902565	1505.4945054945053	
1.749431169808838E12	3.0	1.3757353757353756	726.8839761174762	1456.4102564102564	
1.7494311698283691E12	3.0	1.3757353757353756	726.8839761174762	1409.5238095238094	
1.7494311698479004E12	3.0	1.3752913752913754	727.1186440677966	1378.7545787545787	
1.7494311698674316E12	3.0	1.3744033744033743	727.5884348247456	1352.3809523809523	
